Displacement (mm),Force (N),Time (s)
0.002409993211318824,-4.633270841389555,0.021484375
0.0024147103386016615,-4.607263182831664,0.029296875
0.002419318680912837,-4.5809574374566004,0.037109375
0.0024238186164421516,-4.554464437455159,0.044921875
0.002428210760742282,-4.527896041258675,0.052734375
0.0024324958748928884,-4.501360366179913,0.060546875
0.0024366747887581116,-4.474958716683614,0.068359375
0.0024407484006195488,-4.448786334074202,0.076171875
0.002444717717075544,-4.4229377778967445,0.083984375
0.002448583851318225,-4.397512668258651,0.091796875
0.0024523479606020247,-4.372616727050188,0.099609375
0.002456011195921806,-4.348357710238959,0.10742188
0.002459574709352312,-4.324839248790907,0.11523438
0.0024630396748874547,-4.302156806521848,0.12304688
0.0024664072783083892,-4.280397914932336,0.13085938
0.002469678676878298,-4.2596447747519735,0.13867188
0.0024728549501761674,-4.2399761372970435,0.14648438
0.0024759370771766137,-4.221468414968445,0.15429688
0.0024789259793606532,-4.204198625271663,0.16210938
0.002481822608414069,-4.188248077076451,0.16992188
0.0024846279841463596,-4.173703080090793,0.17773438
0.0024873431546958698,-4.160655006505636,0.18554688
0.0024899691548301794,-4.149203473353944,0.19335938
0.0024925070057672137,-4.139459434571547,0.20117188
0.002494957713098822,-4.131543866463316,0.20898438
0.0024973222061862098,-4.125583530325986,0.21679688
0.002499601247436126,-4.121707190076996,0.22460938
0.002501795401649694,-4.120041786664029,0.23242188
0.0025039051024728443,-4.120708033015971,0.24023438
0.0025059307820748237,-4.123817986791672,0.24804688
0.0025078729913289013,-4.129474438048611,0.25585938
0.0025097324376926306,-4.137769069906838,0.26367188
0.002511509926573272,-4.148779661807901,0.27148438
0.002513206286623829,-4.162569350959181,0.27929688
0.002514822397856396,-4.179189284185317,0.28710938
0.0025163592990174294,-4.198681195613699,0.29492188
0.0025178182262624066,-4.221073912734641,0.30273438
0.002519200548885284,-4.246374836390099,0.31054688
0.002520507707336026,-4.274564036885207,0.31835938
0.0025217412464867274,-4.305595509344435,0.32617188
0.002522902914545967,-4.339404378638766,0.33398438
0.0025239947126248314,-4.3759148279462625,0.34179688
0.002525018839050259,-4.415043041159873,0.34960938
0.0025259775551533634,-4.456694946368291,0.35742188
0.0025268730351101975,-4.500764375084884,0.36523438
0.0025277072711275364,-4.547134308488011,0.37304688
0.00252848207043735,-4.595678053818237,0.38085938
0.0025291991123776443,-4.646257653654398,0.38867188
0.0025298599794743226,-4.698721207783152,0.39648438
0.0025304661415778518,-4.7529026826165826,0.40429688
0.002531018968363217,-4.808622016191772,0.41210938
0.002531519794788206,-4.865680085180153,0.41992188
0.002531969993454579,-4.923851575601652,0.42773438
0.0025323710292904558,-4.982882941267185,0.43554688
0.002532724495446592,-5.042496165167721,0.44335938
0.00253303212950689,-5.102395414682581,0.45117188
0.002533295811295243,-5.162271507660878,0.45898438
0.0025335175428214856,-5.221798041263585,0.46679688
0.00253369942079539,-5.280622376763342,0.47460938
0.002533843631016805,-5.3383631501136035,0.48242188
0.0025339524666853036,-5.394619022822162,0.49023438
0.002534028319374847,-5.448982956296899,0.49804688
0.0025340736094350154,-5.50105614731501,0.50585938
0.0025340906816793355,-5.550459215645249,0.51367188
0.0025340816967845,-5.596841564288174,0.52148438
0.0025340485239424555,-5.639892384067705,0.52929688
0.002533992677082671,-5.67935340660641,0.53710938
0.002533915374369262,-5.715028305919747,0.54492188
0.002533817668543004,-5.7467825649346675,0.55273438
0.0025337004809591916,-5.774533632271741,0.56054688
0.00253356451684525,-5.798238581565628,0.56835938
0.002533410169217963,-5.817884809544069,0.57617188
0.002533237464430516,-5.833481667214077,0.58398438
0.002533046051287279,-5.845049994026724,0.59179688
0.002532835234010753,-5.852615689902599,0.59960938
0.002532604045493501,-5.856214412364072,0.60742188
0.002532351348701196,-5.855901710003924,0.61523438
0.0025320759431819457,-5.851758328445981,0.62304688
0.0025317766496872453,-5.843889068295426,0.63085938
0.0025314523553090253,-5.832420716248804,0.63867188
0.0025311020205092865,-5.817501260741689,0.64648438
0.002530724662784129,-5.799298267604437,0.65429688
0.002530319326984941,-5.777997041166558,0.66210938
0.002529885040351524,-5.753796868302217,0.66992188
0.002529420752771898,-5.726901503680003,0.67773438
0.0025289252781872194,-5.697509270476982,0.68554688
0.002528397257327832,-5.665811664840097,0.69335938
0.0025278351524149595,-5.631998460161139,0.70117188
0.002527237267010321,-5.5962601796222025,0.70898438
0.0025266017636917286,-5.558785684760949,0.71679688
0.002525926667979833,-5.519759972115976,0.72460938
0.0025252098898021057,-5.479365400373225,0.73242188
0.002524449289337088,-5.437784567294171,0.74023438
0.0025236427627793327,-5.395202028017934,0.74804688
0.0025227882954725477,-5.351804449561117,0.75585938
0.0025218839584463006,-5.307779851941657,0.76367188
0.0025209278693132347,-5.263316196990408,0.77148438
0.0025199181450760943,-5.218600034012507,0.77929688
0.002518852860354737,-5.17381333653135,0.78710938
0.0025177300240923923,-5.129125379705526,0.79492188
0.0025165475755395445,-5.084685064301074,0.80273438
0.0025153033694076603,-5.040620178840779,0.81054688
0.0025139951433115764,-4.997040370224935,0.81835938
0.0025126205323951806,-4.954041880185792,0.82617188
0.0025111771652247756,-4.911715762698547,0.83398438
0.0025096627571935025,-4.870155867860946,0.84179688
0.002508075113924237,-4.82946053699947,0.84960938
0.0025064120656126724,-4.789727435666621,0.85742188
0.002504671412570842,-4.751047940123669,0.86523438
0.0025028509255146723,-4.713507789862438,0.87304688
0.0025009483823782005,-4.677193825861174,0.88085938
0.00249896160358522,-4.642200394996663,0.88867188
0.002496888480948867,-4.608629969394096,0.89648438
0.002494727037810948,-4.576589521354328,0.90429688
0.002492475510883759,-4.5461867110292316,0.91210938
0.0024901323680512795,-4.51752568724518,0.91992188
0.002487696242354178,-4.490701032214227,0.92773438
0.0024851658726097146,-4.46579191887732,0.93554688
0.0024825401202832366,-4.44285909640914,0.94335938
0.0024798180379208457,-4.421944373951076,0.95117188
0.0024769989269443756,-4.403070468256301,0.95898438
0.0024740823672396665,-4.386238908221269,0.96679688
0.002471068242891201,-4.371427015975116,0.97460938
0.0024679567608700925,-4.3585877864015705,0.98242188
0.0024647484275005724,-4.347651888862545,0.99023438
0.002461443977217317,-4.338528363174162,0.99804688
0.002458044280578944,-4.3311066996280365,1.0058594
0.002454550243700344,-4.325264266902715,1.0136719
0.002450962688666,-4.320875138232105,1.0214844
0.0024472822267206868,-4.317814685040199,1.0292969
0.002443509180112683,-4.315962328031579,1.0371094
0.002439643583990274,-4.315206899299125,1.0449219
0.0024356852253512385,-4.315451142233324,1.0527344
0.002431633663121875,-4.3166101552098795,1.0605469
0.002427488221172193,-4.318605700148605,1.0683594
0.0024232479792016,-4.321361221771158,1.0761719
0.0024189117790650526,-4.324800616711221,1.0839844
0.0024144782352489512,-4.328849721293463,1.0917969
0.0024099457162957767,-4.333435338686509,1.0996094
0.00240531227830795,-4.338479163406853,1.1074219
0.0024005755837016077,-4.343889358328478,1.1152344
0.0023957328726266574,-4.349554926537966,1.1230469
0.002390781043032849,-4.355347311401792,1.1308594
0.0023857168110537653,-4.361129453902425,1.1386719
0.002380536806067023,-4.366766791768121,1.1464844
0.0023752375213615296,-4.3721320934338666,1.1542969
0.002369815227345156,-4.377102895051775,1.1621094
0.0023642659752445222,-4.381559561079686,1.1699219
0.0023585857146038638,-4.385387246785442,1.1777344
0.0023527704460088094,-4.388476554532035,1.1855469
0.002346816300143897,-4.390723064479275,1.1933594
0.002340719510303835,-4.392030716068398,1.2011719
0.0023344763462315476,-4.392317406096731,1.2089844
0.002328083111438668,-4.391519264769093,1.2167969
0.0023215361999070617,-4.389593730296416,1.2246094
0.0023148321093276877,-4.38651908281745,1.2324219
0.002307967402016286,-4.382286996652722,1.2402344
0.0023009387168206885,-4.376892978076992,1.2480469
0.0022937428861860435,-4.370334725622831,1.2558594
0.002286377065433335,-4.36261845606479,1.2636719
0.0022788387383850224,-4.353763601157439,1.2714844
0.0022711255954806905,-4.343801769063289,1.2792969
0.0022632353869903384,-4.33277299494388,1.2871094
0.002255165837464859,-4.320723318109509,1.2949219
0.0022469146235610154,-4.307706028343148,1.3027344
0.002238479360217177,-4.293782359265191,1.3105469
0.0022298575871239836,-4.279016521271349,1.3183594
0.002221046791070126,-4.2634703501752105,1.3261719
0.002212044464831577,-4.24720343239085,1.3339844
0.00220284815609618,-4.230274904473923,1.3417969
0.002193455461603174,-4.212744884259565,1.3496094
0.002183863980600415,-4.194677483112825,1.3574219
0.0021740712682653076,-4.176142603582595,1.3652344
0.0021640747919680096,-4.157213254476588,1.3730469
0.0021538718826001574,-4.137960119729204,1.3808594
0.0021434596969279996,-4.1184466227648135,1.3886719
0.002132835205311434,-4.098726037076016,1.3964844
0.002121995208678002,-4.078842364801324,1.4042969
0.002110936390115239,-4.058835701245133,1.4121094
0.002099655386774392,-4.038748028406748,1.4199219
0.002088148841427146,-4.0186246118120446,1.4277344
0.0020764134104049293,-3.998511572386434,1.4355469
0.002064445742394398,-3.978451577773337,1.4433594
0.0020522424551788266,-3.95847667458229,1.4511719
0.002039800128851814,-3.938602184803723,1.4589844
0.002027115307057578,-3.9188292895807537,1.4667969
0.002014184454503971,-3.899155270752057,1.4746094
0.002001003825088947,-3.8795831851526237,1.4824219
0.0019875693045811895,-3.8601246080449134,1.4902344
0.001973876374849455,-3.840794313465671,1.4980469
0.0019599202510338053,-3.821601336830169,1.5058594
0.0019456960814106105,-3.8025441029647324,1.5136719
0.00193119905614511,-3.783613055626213,1.5214844
0.00191642437419327,-3.7647950467872575,1.5292969
0.001901367161597991,-3.7460741527222177,1.5371094
0.001886022451277932,-3.7274331274800523,1.5449219
0.0018703852393661634,-3.7088592050065663,1.5527344
0.0018544505788419385,-3.690349106712777,1.5605469
0.0018382136567593383,-3.671908377028514,1.5683594
0.0018216697933581066,-3.6535491070395887,1.5761719
0.001804814365571951,-3.6352918507051495,1.5839844
0.0017876427529288565,-3.6171687112929156,1.5917969
0.001770150349988748,-3.5992232749980997,1.5996094
0.0017523325587750274,-3.5815110253419595,1.6074219
0.0017341847328104893,-3.5641022621618568,1.6152344
0.0017157021540950472,-3.5470820026452303,1.6230469
0.0016968800505471,-3.530544399919287,1.6308594
0.0016777135881881362,-3.5145865063598314,1.6386719
0.001658197828867871,-3.499304821519253,1.6464844
0.0016383276916681288,-3.484793766499269,1.6542969
0.0016180979407789753,-3.471145392110253,1.6621094
0.0015975032061716972,-3.4584503384934484,1.6699219
0.0015765380333984727,-3.44679981324117,1.6777344
0.0015551969306456068,-3.436288244675357,1.6855469
0.0015334743829420654,-3.427013272064075,1.6933594
0.001511364850110208,-3.4190703585420774,1.7011719
0.00148886278976604,-3.412547443841585,1.7089844
0.001465962719884749,-3.4075243378782436,1.7167969
0.0014426592866108652,-3.404072335389519,1.7246094
0.0014189473207392269,-3.4022494727062185,1.7324219
0.00139482192524687,-3.402095107639481,1.7402344
0.0013702785788962757,-3.4036318816469704,1.7480469
0.0013453131731529539,-3.4068756716901927,1.7558594
0.0013199220011210486,-3.411844616237268,1.7636719
0.0012941017695500827,-3.418561609313272,1.7714844
0.0012678495976450892,-3.427052663310334,1.7792969
0.0012411629621436693,-3.437344370209202,1.7871094
0.0012140396349643878,-3.4494608326491063,1.7949219
0.0011864776509471927,-3.4634196734828917,1.8027344
0.0011584752882043867,-3.4792293319742553,1.8105469
0.001130031022468043,-3.4968915234910423,1.8183594
0.0011011434492541464,-3.5164100649989827,1.8261719
0.0010718112177964573,-3.5378026608117126,1.8339844
0.0010420330040174794,-3.5611097482927327,1.8417969
0.0010118074975963849,-3.5863976784631793,1.8496094
0.000981133380389313,-3.6137573861896466,1.8574219
0.0009500092827750301,-3.6433007471486016,1.8652344
0.0009184336807218057,-3.675159342129289,1.8730469
0.0008864047464733414,-3.7094887099487788,1.8808594
0.0008539202543616921,-3.7464725214686965,1.8886719
0.0008209775986710252,-3.786319816106593,1.8964844
0.0007875738837967412,-3.8292552934516237,1.9042969
0.0007537060499352298,-3.8755057601039113,1.9121094
0.0007193710164514886,-3.9252886246270227,1.9199219
0.0006845658009970219,-3.978807857650222,1.9277344
0.0006492875930545591,-4.036254412799254,1.9355469
0.00061353381728101,-4.097806683834081,1.9433594
0.0005773022131480501,-4.163633165739367,1.9511719
0.0005405909010093281,-4.233897570903327,1.9589844
0.0005033983954691855,-4.308760644075417,1.9667969
0.00046572357215579694,-4.388376510373039,1.9746094
0.0004275656293339114,-4.472887244008878,1.9824219
0.00038892406550765883,-4.562420397924666,1.9902344
0.0003497986604275266,-4.657091214686544,1.9980469
0.0003101894563200596,-4.757005832515859,2.0058594
0.0002700967402545316,-4.862262013684439,2.0136719
0.0002295210127338591,-4.972946203620811,2.0214844
0.00018846295411147524,-5.08912765891372,2.0292969
0.00014692343423090425,-5.2108544232927185,2.0371094
0.00010490357943886021,-5.338153330446272,2.0449219
6.24048474863915e-05,-5.471032399406253,2.0527344
1.9429051260213274e-05,-5.609483731153401,2.0605469
-2.402168738889943e-05,-5.753483450212077,2.0683594
-6.794503069337151e-05,-5.9029899966573245,2.0761719
-0.00011233848605700992,-6.057945632038503,2.0839844
-0.00015719936184297565,-6.21827954016252,2.0917969
-0.000202524650043844,-6.383909853095188,2.0996094
-0.00024831094087313403,-6.554744952810876,2.1074219
-0.00029455445698903297,-6.7306829276783535,2.1152344
-0.00034125118376583853,-6.91161168193226,2.1230469
-0.00038839696727020924,-7.09741295114979,2.1308594
-0.000435987514047396,-7.287964286379656,2.1386719
-0.00048401834660161087,-7.483134550658665,2.1464844
-0.0005324847965789453,-7.682778916845914,2.1542969
-0.0005813820713355857,-7.8867388569439,2.1621094
-0.0006307053613621089,-8.094845889173833,2.1699219
-0.0006804499090481321,-8.306924821391897,2.1777344
-0.0007306109624110196,-8.522793503844625,2.1855469
-0.0007811836420283143,-8.742260885873362,2.1933594
-0.0008321628476685367,-8.965129371206807,2.2011719
-0.0008835432764856104,-9.191204068932649,2.2089844
-0.0009353195125740879,-9.420300086282559,2.2167969
-0.0009874860748774997,-9.652239583020004,2.2246094
-0.0010400373566902335,-9.886845589420114,2.2324219
-0.0010929675320550736,-10.123939974418795,2.2402344
-0.0011462705409970117,-10.36334474768875,2.2480469
-0.0011999401909728502,-10.604885912097593,2.2558594
-0.0012539703097646545,-10.848396421710376,2.2636719
-0.0013083548349959175,-11.093715922691942,2.2714844
-0.0013630878049661563,-11.34068973469831,2.2792969
-0.0014181633115729053,-11.5891680997492,2.2871094
-0.0014735754961069684,-11.839007123613213,2.2949219
-0.001529318602146653,-12.090070567654081,2.3027344
-0.001585387009093207,-12.342228136260621,2.3105469
-0.0016417751736544002,-12.59535424834428,2.3183594
-0.0016984775032650628,-12.849334812680091,2.3261719
-0.0017554883005472322,-13.104077090064417,2.3339844
-0.001812801846992314,-13.359511800773927,2.3417969
-0.0018704124804607202,-13.615588102530024,2.3496094
-0.0019283145553674911,-13.872271121446957,2.3574219
-0.001986502375576888,-14.129542819475999,2.3652344
-0.002044970217701445,-14.387398529069221,2.3730469
-0.0021037124406838746,-14.645838704204833,2.3808594
-0.002162723589520984,-14.904861707056517,2.3886719
-0.002221998417791467,-15.164460126708947,2.3964844
-0.002281531818255251,-15.424621684388008,2.4042969
-0.002341318740582216,-15.685336864857295,2.4121094
-0.0024013541932615475,-15.946608292181038,2.4199219
-0.002461633291673475,-16.20845120095518,2.4277344
-0.0025221512550294978,-16.470885606201858,2.4355469
-0.0025829033611730634,-16.73393221876725,2.4433594
-0.002643884933154495,-16.997617007934682,2.4511719
-0.002705091386146873,-17.2619786233236,2.4589844
-0.002766518292958233,-17.52707406868688,2.4667969
-0.002828161414354658,-17.792982517590392,2.4746094
-0.0028900166810464914,-18.059806665099988,2.4824219
-0.002952080143663784,-18.32766894512447,2.4902344
-0.003014347924778658,-18.596706084347748,2.4980469
-0.003076816214702264,-18.86707160034693,2.5058594
-0.00313948132166562,-19.138942742382927,2.5136719
-0.0032023397381092233,-19.412520333721442,2.5214844
-0.00326538815685447,-19.688023968774758,2.5292969
-0.0033286233951853243,-19.965684995671594,2.5371094
-0.003392042270283447,-20.245731725752464,2.5449219
-0.003455641511884961,-20.528374401694364,2.5527344
-0.0035194177442345173,-20.813802236325706,2.5605469
-0.003583367535692389,-21.102189384528096,2.5683594
-0.0036474875024669457,-21.39370081105993,2.5761719
-0.003711774388212651,-21.688494308662438,2.5839844
-0.00377622504089172,-21.986718085451127,2.5917969
-0.003840836325339194,-22.288502903200445,2.5996094
-0.0039056050695685,-22.59394819415878,2.6074219
-0.00397052807832546,-22.90310935749216,2.6152344
-0.00403560217134298,-23.215997762517734,2.6230469
-0.00410082419798445,-23.532592807522892,2.6308594
-0.004166191025006254,-23.852852486793196,2.6386719
-0.004231699511055449,-24.176712480233764,2.6464844
-0.004297346459955756,-24.504076304278207,2.6542969
-0.004363128557987526,-24.834807977877,2.6621094
-0.004429042334490298,-25.168733037337578,2.6699219
-0.004495084176126015,-25.505640236894838,2.6777344
-0.004561250389669312,-25.84528101513921,2.6855469
-0.00462753726775843,-26.187375502063915,2.6933594
-0.004693941113774029,-26.531626301744584,2.7011719
-0.004760458245601447,-26.877729035896913,2.7089844
-0.0048270850078848265,-27.225367898296682,2.7167969
-0.004893817775627221,-27.574195111779662,2.7246094
-0.004960652952091223,-27.92381153762002,2.7324219
-0.005027587000684844,-28.273768809482167,2.7402344
-0.00509461648843246,-28.623593374560656,2.7480469
-0.005161738074466362,-28.972816124814525,2.7558594
-0.005228948479234019,-29.320992176285994,2.7636719
-0.005296244510460091,-29.667710362572254,2.7714844
-0.0053636231005224745,-30.012602133315298,2.7792969
-0.005431081288688935,-30.355350021838234,2.7871094
-0.00549861617809809,-30.69568978871111,2.7949219
-0.005566224912946875,-31.03340907559256,2.8027344
-0.005633904683857117,-31.368347622325967,2.8105469
-0.005701652759785099,-31.70039726086534,2.8183594
-0.0057694665406903215,-32.0295005067515,2.8261719
-0.0058373436114343286,-32.35565035509496,2.8339844
-0.005905281770530153,-32.67889070437065,2.8417969
-0.005973279017774767,-32.99931918193517,2.8496094
-0.006041333505396791,-33.31709674938872,2.8574219
-0.0061094434782732535,-33.632460003451754,2.8652344
-0.006177607239485753,-33.945725351301675,2.8730469
-0.00624582315142958,-34.257271691642636,2.8808594
-0.006314089644584737,-34.56750066118561,2.8886719
-0.006382405218525492,-34.876799661070336,2.8964844
-0.006450768447048237,-35.18553043312591,2.9042969
-0.006519177988827472,-35.49403456988924,2.9121094
-0.006587632593244042,-35.802635396555786,2.9199219
-0.006656131099411925,-36.1116328444118,2.9277344
-0.006724672429840757,-36.42130043969249,2.9355469
-0.006793255571144876,-36.73188602898017,2.9433594
-0.006861879532661435,-37.04360964257153,2.9511719
-0.006930543297183801,-37.35665612367133,2.9589844
-0.0069992458014174735,-37.67116637729601,2.9667969
-0.007067985962010382,-37.987231562932486,2.9746094
-0.007136762715568867,-38.304893304629225,2.9824219
-0.007205575030471511,-38.62415032949774,2.9902344
-0.007274421876583669,-38.944966025023454,2.9980469
-0.007343302179605917,-39.26727411491651,3.0058594
-0.00741221481831488,-39.590989225660564,3.0136719
-0.007481158688860759,-39.91602059675545,3.0214844
-0.007550132790551334,-40.242277101158095,3.0292969
-0.0076191362936498955,-40.56966217357439,3.0371094
-0.007688168591572935,-40.89806434708604,3.0449219
