Displacement (mm),Force (N),Time (s)
0.004337521431876979,-4.926609253561638,0.021972656
0.004341523291547938,-4.925599084983005,0.029785156
0.0043455753001414585,-4.925143188404657,0.037597656
0.004349676073067781,-4.92519970810915,0.045410156
0.0043538242257087035,-4.925735362394431,0.053222656
0.004358018373992783,-4.926722329965031,0.061035156
0.00436225710997066,-4.928136441260455,0.068847656
0.004366538955183916,-4.929956534452775,0.076660156
0.004370862280473477,-4.9321586364599925,0.084472656
0.004375225245543005,-4.934707567250524,0.092285156
0.00437962581510262,-4.93755289510979,0.10009766
0.004384061826893975,-4.940629005459369,0.10791016
0.004388531059130871,-4.9438575781999035,0.11572266
0.004393031280089237,-4.947153111137312,0.12353516
0.004397560280527398,-4.950430734581868,0.13134766
0.004402115893309523,-4.953613866620384,0.13916016
0.0044066960094270215,-4.956638056208414,0.14697266
0.00441129858956449,-4.959449948086043,0.15478516
0.004415921655978138,-4.962003973588435,0.16259766
0.00442056325442166,-4.964259081992272,0.17041016
0.004425221401692471,-4.966178882537069,0.17822266
0.004429894066176498,-4.967734526968071,0.18603516
0.004434579214758581,-4.9689048459604646,0.19384766
0.004439274881342076,-4.969673417524053,0.20166016
0.004443979189346717,-4.970024848236229,0.20947266
0.004448690339077292,-4.96994176413986,0.21728516
0.004453406611005534,-4.9694054079382015,0.22509766
0.004458126394185929,-4.968402985744096,0.23291016
0.004462848212129865,-4.966940642337356,0.24072266
0.004467570718782034,-4.965053475385546,0.24853516
0.004472292660465047,-4.9628060898295105,0.25634766
0.00447701283179924,-4.960286365934173,0.26416016
0.004481730068488679,-4.957597233491417,0.27197266
0.004486443291640761,-4.9548494078502445,0.27978516
0.0044911515716284664,-4.952157257504155,0.28759766
0.004495854154776584,-4.949637289887024,0.29541016
0.004500550413606247,-4.947404866280381,0.30322266
0.004505239750831219,-4.945566487648232,0.31103516
0.004509921526729761,-4.944213169180703,0.31884766
0.004514595032018282,-4.943422129235155,0.32666016
0.004519259487989583,-4.943263632065652,0.33447266
0.00452391406280783,-4.943803207371728,0.34228516
0.004528557899792649,-4.945098630091362,0.35009766
0.004533190151395218,-4.947200765255084,0.35791016
0.004537810011801942,-4.950158933259381,0.36572266
0.004542416750416042,-4.954021701698038,0.37353516
0.004547009753913077,-4.9588318313870925,0.38134766
0.004551588561984764,-4.9646206915318745,0.38916016
0.004556152869383054,-4.9714042322170995,0.39697266
0.004560702498914297,-4.979182031884693,0.40478516
0.004565237374914298,-4.987939441865737,0.41259766
0.00456975751148122,-4.997648682357892,0.42041016
0.004574263006112015,-5.008268758159301,0.42822266
0.004578754016380123,-5.019748667525342,0.43603516
0.004583230708540987,-5.032032428905782,0.44384766
0.004587693205571862,-5.045061530701621,0.45166016
0.004592141573127357,-5.058775711593703,0.45947266
0.0045965758466924335,-5.0731155716005585,0.46728516
0.0046009960730118,-5.08802637827891,0.47509766
0.004605402329757761,-5.103457036689157,0.48291016
0.004609794701145574,-5.119353044839601,0.49072266
0.004614173230305172,-5.135650935960622,0.49853516
0.0046185379099893285,-5.152278004447618,0.50634766
0.004622888746693562,-5.169153957981051,0.51416016
0.0046272258387040285,-5.186193160656523,0.52197266
0.004631549389148879,-5.203308298105027,0.52978516
0.004635859668079722,-5.220413314366226,0.53759766
0.004640156980631572,-5.237422982138211,0.54541016
0.004644441659918665,-5.2542498852605,0.55322266
0.004648714079155595,-5.270802098250823,0.56103516
0.0046529746756787315,-5.2869838407377,0.56884766
0.004657223984731341,-5.302699838315585,0.57666016
0.004661462692928681,-5.317863605391978,0.58447266
0.0046656917035517815,-5.332406416704434,0.59228516
0.004669912163633284,-5.34628075191931,0.60009766
0.004674125418773938,-5.359457118109548,0.60791016
0.004678332935757615,-5.371917885335766,0.61572266
0.004682536252210244,-5.383650937366969,0.62353516
0.0046867369545451785,-5.394646565944767,0.63134766
0.00469093664988155,-5.404897860970728,0.63916016
0.0046951369185908275,-5.414400857077544,0.64697266
0.004699339254029483,-5.423155122772152,0.65478516
0.004703544999541509,-5.431168796504282,0.66259766
0.004707755299902584,-5.43846747568848,0.67041016
0.004711971078837192,-5.445101126004045,0.67822266
0.0047161930357827704,-5.451142755292601,0.68603516
0.00472042166040128,-5.456678073361154,0.69384766
0.0047246572856905,-5.461792669667397,0.70166016
0.004728900182705353,-5.466563103630063,0.70947266
0.004733150646213338,-5.4710521309511915,0.71728516
0.00473740901918491,-5.475305607310616,0.72509766
0.004741675666778025,-5.479351957597664,0.73291016
0.004745950942799698,-5.483206826401786,0.74072266
0.004750235169396535,-5.486880775838404,0.74853516
0.004754528631621436,-5.490384042148824,0.75634766
0.004758831586032089,-5.493725546507333,0.76416016
0.004763144277934254,-5.496909314137883,0.77197266
0.004767466957155774,-5.499932113474792,0.77978516
0.004771799883729611,-5.502783985903962,0.78759766
0.004776143315090121,-5.5054531048035535,0.79541016
0.004780497465192056,-5.507930156451341,0.80322266
0.004784862438365245,-5.510204471583533,0.81103516
0.004789238153768446,-5.512257263943202,0.81884766
0.004793624269985514,-5.514060720149786,0.82666016
0.004798020118927435,-5.515578934506694,0.83447266
0.004802424672401537,-5.516767331924483,0.84228516
0.004806836555247767,-5.517576754014738,0.85009766
0.004811254091449392,-5.517963345525618,0.85791016
0.004815675366256087,-5.517896168502993,0.86572266
0.0048200983094703245,-5.51735927884663,0.87353516
0.004824520808266394,-5.516350041828402,0.88134766
0.00482894080682045,-5.5148738967710695,0.88916016
0.004833356323625159,-5.512938878515625,0.89697266
0.004837765377221984,-5.51055383175838,0.90478516
0.004842165866264987,-5.5077288846841075,0.91259766
0.004846555461708024,-5.504473983796804,0.92041016
0.0048509315541703565,-5.500795686586169,0.92822266
0.0048552912583349605,-5.496695898640219,0.93603516
0.0048596314582556015,-5.492172014517632,0.94384766
0.004863948875173591,-5.487217452146151,0.95166016
0.004868240123112484,-5.481823928577582,0.95947266
0.004872501737236041,-5.475986469888503,0.96728516
0.004876730202190938,-5.469710497213023,0.97509766
0.004880921978795948,-5.463017462563931,0.98291016
0.004885073474111815,-5.45594729343864,0.99072266
0.004889180965842104,-5.448557885457719,0.99853516
0.004893240577773697,-5.440920672069221,1.0063477
0.0048972483277317895,-5.433113441230109,1.0141602
0.004901200166264627,-5.425216251293821,1.0219727
0.004905091972989793,-5.4173122922142865,1.0297852
0.004908919585739598,-5.409484176858743,1.0375977
0.004912678913615864,-5.401803665570398,1.0454102
0.004916366056604964,-5.394328261657591,1.0532227
0.004919977332974585,-5.387107828097949,1.0610352
0.004923509206141415,-5.3801906541615585,1.0688477
0.004926958166078498,-5.373622835058094,1.0766602
0.004930320633546556,-5.3674430079258775,1.0844727
0.004933592923357222,-5.361679846210558,1.0922852
0.004936771258754606,-5.3563541251827065,1.1000977
0.004939851819913215,-5.351478495349003,1.1079102
0.004942830812040845,-5.3470556517622,1.1157227
0.004945704525168372,-5.343079251036647,1.1235352
0.004948469339924975,-5.339535309178035,1.1313477
0.004951121657219279,-5.336406767345129,1.1391602
0.004953657786729927,-5.333684276411385,1.1469727
0.00495607385082654,-5.3313741224319555,1.1547852
0.004958365745006573,-5.329495007222156,1.1625977
0.0049605291556250155,-5.328067319394829,1.1704102
0.004962559582044054,-5.327103760577843,1.1782227
0.004964452315003889,-5.326607215426533,1.1860352
0.004966202407585222,-5.326575677506856,1.1938477
0.004967804727211079,-5.327007510100662,1.2016602
0.0049692540913779575,-5.327900115567192,1.2094727
0.004970545386624698,-5.32924409081078,1.2172852
0.004971673588523993,-5.331019227400097,1.2250977
0.004972633674037928,-5.33319278413658,1.2329102
0.0049734205017854475,-5.335718587046643,1.2407227
0.004974028769557768,-5.3385391575347345,1.2485352
0.0049744530857312366,-5.341590343382593,1.2563477
0.004974688106494858,-5.344804620225939,1.2641602
0.004974728638323621,-5.348113406520553,1.2719727
0.004974569625106794,-5.351450336191067,1.2797852
0.004974206042246138,-5.3547532755475755,1.2875977
0.004973632782044215,-5.357963691932384,1.2954102
0.004972844602444125,-5.361027591803015,1.3032227
0.004971836157005586,-5.363899608582164,1.3110352
0.004970602059941526,-5.366545129697425,1.3188477
0.004969136936405429,-5.368938580213537,1.3266602
0.004967435445481176,-5.371058971889358,1.3344727
0.004965492280393509,-5.372881874109053,1.3422852
0.004963302160644394,-5.374372731023293,1.3500977
0.004960859836635505,-5.37548909631587,1.3579102
0.004958160112381293,-5.376187755529399,1.3657227
0.00495519788032158,-5.376427307853592,1.3735352
0.004951968153983923,-5.37616661907438,1.3813477
0.004948466068661325,-5.375362559032621,1.3891602
0.0049446868433653405,-5.373966316837601,1.3969727
0.00494062574486187,-5.371923034439846,1.4047852
0.004936278077436327,-5.369177940599788,1.4125977
0.0049316391650333,-5.365681492580398,1.4204102
0.004926704293417594,-5.361390789686778,1.4282227
0.00492146862321086,-5.356272333057178,1.4360352
0.004915927099986235,-5.350305447135175,1.4438477
0.004910074386453714,-5.343483073919294,1.4516602
0.004903904849538159,-5.335811792544927,1.4594727
0.004897412615034803,-5.327310671961751,1.4672852
0.004890591651194134,-5.3180071836502005,1.4750977
0.004883435824876094,-5.307933716241385,1.4829102
0.00487593892142841,-5.297124622554506,1.4907227
0.004868094677330288,-5.285613052048192,1.4985352
0.004859896858917678,-5.273430655757405,1.5063477
0.004851339356627533,-5.260606087497541,1.5141602
0.0048424162434814785,-5.247160740773695,1.5219727
0.0048331217684765984,-5.233110278972611,1.5297852
0.004823450306423026,-5.2184712480183455,1.5375977
0.004813396331953456,-5.20326207195048,1.5454102
0.004802954443037622,-5.187499093069515,1.5532227
0.004792119386202097,-5.171196561628912,1.5610352
0.004780886044248595,-5.154370262162738,1.5688477
0.004769249395423989,-5.137040148584756,1.5766602
0.004757204460656459,-5.119232624809423,1.5844727
0.004744746250374224,-5.10098341418371,1.5922852
0.004731869747054875,-5.082339279730419,1.6000977
0.0047185699562068235,-5.063355924827205,1.6079102
0.004704842003011355,-5.044090756491356,1.6157227
0.004690681229495104,-5.024596121932133,1.6235352
0.004676083269238347,-5.004918923686646,1.6313477
0.00466104408230966,-4.985102642753693,1.6391602
0.00464555993644761,-4.965188000324725,1.6469727
0.004629627341568287,-4.945214699609373,1.6547852
0.004613242953859967,-4.9252241454710255,1.6625977
0.004596403470527439,-4.905262636448114,1.6704102
0.004579105547214426,-4.8853877913876635,1.6782227
0.004561345757003775,-4.8656763535820735,1.6860352
0.004543120583904671,-4.846225653817694,1.6938477
0.004524426440097147,-4.827144752322453,1.7016602
0.004505259707093995,-4.808542094863172,1.7094727
0.004485616806660694,-4.790519574294211,1.7172852
0.004465494285499212,-4.773172786750374,1.7250977
0.004444888859757639,-4.75659214846323,1.7329102
0.004423797389304744,-4.740864332241307,1.7407227
0.004402216826061922,-4.7260758541328025,1.7485352
0.0043801441917170085,-4.7123194569767595,1.7563477
0.004357576591095192,-4.6997000548394645,1.7641602
0.004334511243420242,-4.68833458323593,1.7719727
0.004310945518055895,-4.6783473553314305,1.7797852
0.004286876963905776,-4.669868128249552,1.7875977
0.004262303318418844,-4.6630332764042866,1.7954102
0.004237222481516926,-4.657986182548256,1.8032227
0.004211632456464879,-4.654876214643709,1.8110352
0.004185531282519581,-4.653856885386102,1.8188477
0.004158916991413508,-4.655083731007764,1.8266602
0.004131787610264444,-4.658713098310601,1.8344727
0.004104141215840429,-4.664902591976524,1.8422852
0.0040759760282395,-4.673812887462215,1.8500977
0.004047290502971596,-4.685612785958687,1.8579102
0.004018083365345013,-4.7004871618882635,1.8657227
0.003988353575345534,-4.7186409172785835,1.8735352
0.003958100257186288,-4.7402954314042605,1.8813477
0.003927322625692522,-4.765679915244006,1.8891602
0.0038960199267822665,-4.795022306496337,1.8969727
0.0038641914060160024,-4.82854247717087,1.9047852
0.0038318363192752975,-4.866444528571623,1.9125977
0.0037989539804494108,-4.9089084886049426,1.9204102
0.003765543806179466,-4.956086664743628,1.9282227
0.0037316052916465184,-5.0081048506730825,1.9360352
0.00369713789137892,-5.0650647823367105,1.9438477
0.0036621409026156818,-5.127045424558411,1.9516602
0.0036266134663535837,-5.194104004907944,1.9594727
0.0035905546518877063,-5.266278170040129,1.9672852
0.003553963524719105,-5.343586972711069,1.9750977
0.003516839171769352,-5.426028074014894,1.9829102
0.0034791807048598308,-5.5135747758010005,1.9907227
0.0034409872545076484,-5.60617865670651,1.9985352
0.0034022579655567237,-5.70377542859739,2.0063477
0.0033629920164868275,-5.806287862359488,2.0141602
0.0033231886696977013,-5.913623793475808,2.0219727
0.0032828473306021314,-6.025672385498144,2.0297852
0.003241967584437908,-6.142304286863147,2.0375977
0.003200549195491562,-6.26337561457075,2.0454102
0.003158592076525605,-6.388730593634124,2.0532227
0.0031160962506304904,-6.5182013997541235,2.0610352
0.0030730618312995953,-6.6516094778295445,2.0688477
0.003029489035891421,-6.788772050373707,2.0766602
0.002985378225229133,-6.929510032719172,2.0844727
0.002940729954094428,-7.0736511661492845,2.0922852
0.0028955450287037627,-7.221029699034953,2.1000977
0.002849824566411703,-7.371486992652326,2.1079102
0.002803570026399991,-7.524871888369236,2.1157227
0.002756783175657519,-7.681039139004162,2.1235352
0.002709466008080298,-7.839848542858958,2.1313477
0.002661620676061933,-8.001165226678836,2.1391602
0.002613249473799232,-8.164857080062404,2.1469727
0.002564354870138921,-8.330788946078082,2.1547852
0.002514939551822429,-8.49882151412519,2.1625977
0.0024650064365966447,-8.668818649705452,2.1704102
0.0024145586540833086,-8.840653583733774,2.1782227
0.002363599513098991,-9.014207747141947,2.1860352
0.00231213248001762,-9.189368567394219,2.1938477
0.0022601611914707283,-9.366032430552305,2.2016602
0.0022076894743387784,-9.544111331194834,2.2094727
0.0021547213155284008,-9.723536780240913,2.2172852
0.0021012607874869083,-9.90425604426473,2.2250977
0.002047311993057362,-10.086224761141704,2.2329102
0.0019928790725640415,-10.269404543946976,2.2407227
0.0019379662584611537,-10.453764712381025,2.2485352
0.0018825779102749037,-10.63928044374191,2.2563477
0.001826718478231745,-10.825926519454539,2.2641602
0.0017703924343431825,-11.013670829643498,2.2719727
0.0017136042429164227,-11.20247082399665,2.2797852
0.001656358380088666,-11.392276884455214,2.2875977
0.001598659374252871,-11.583041083809102,2.2954102
0.0015405118535127783,-11.77472211904216,2.3032227
0.0014819205866625296,-11.96728488873597,2.3110352
0.0014228904880133374,-12.16070386911288,2.3188477
0.0013634265746727185,-12.354971747536869,2.3266602
0.0013035339091784447,-12.550104797790787,2.3344727
0.0012432175615346881,-12.746142662796172,2.3422852
0.0011824825958234768,-12.943144899045436,2.3500977
0.0011213340828108626,-13.141185691312081,2.3579102
0.0010597771394163793,-13.340349276847238,2.3657227
0.0009978169557492108,-13.540724038237654,2.3735352
0.0009354587423374863,-13.742394142475177,2.3813477
0.0008727076123073026,-13.945434138160655,2.3891602
0.0008095684992792904,-14.149906423023115,2.3969727
0.0007460461520352465,-14.355859660277789,2.4047852
0.0006821451686650503,-14.563332779286181,2.4125977
0.0006178700401082124,-14.772362844104983,2.4204102
0.0005532251889536608,-14.982989169379076,2.4282227
0.000488214993122187,-15.195253308646276,2.4360352
0.00042284379604480744,-15.40919561754769,2.4438477
0.0003571159219633287,-15.62484946864879,2.4516602
0.00029103572310938897,-15.842239314137153,2.4594727
0.00022460764530525935,-16.06138110959641,2.4672852
0.00015783625161972312,-16.282278668464826,2.4750977
9.072619347285984e-05,-16.504917908224193,2.4829102
2.3282194721149322e-05,-16.729262856205395,2.4907227
-4.4490927518719946e-05,-16.95525337383842,2.4985352
-0.00011258825764736038,-17.182803824690804,2.5063477
-0.00018100481474047844,-17.411803937704704,2.5141602
-0.00024973558882589116,-17.642122005806613,2.5219727
-0.0003187755534385812,-17.87360707600573,2.5297852
-0.0003881196554217632,-18.10608993290693,2.5375977
-0.0004577627916662318,-18.33938536536202,2.5454102
-0.000527699785892158,-18.573298434857104,2.5532227
-0.0005979253761381344,-18.807638047755603,2.5610352
-0.0006684342148895064,-19.042231009706185,2.5688477
-0.0007392208841535305,-19.276922763125928,2.5766602
-0.0008102799505789055,-19.511565689292144,2.5844727
-0.0008816060795568766,-19.746009099524468,2.5922852
-0.0009531941344642867,-19.980099726732533,2.6000977
-0.0010250391580700197,-20.21369255824404,2.6079102
-0.0010971362645265654,-20.446662646442768,2.6157227
-0.0011694805469206222,-20.67890348746781,2.6235352
-0.0012420670377208205,-20.910314011526907,2.6313477
-0.001314890702384513,-21.140793060342666,2.6391602
-0.0013879464591737144,-21.370246602917668,2.6469727
-0.0014612292370178978,-21.59858969579655,2.6547852
-0.0015347340559682507,-21.82573192284966,2.6625977
-0.0016084560754250988,-22.051559618929204,2.6704102
-0.0016823905843351232,-22.275928763240177,2.6782227
-0.0017565329704788562,-22.498670106785283,2.6860352
-0.0018308787034879215,-22.71960407023936,2.6938477
-0.0019054233234336076,-22.938557236604858,2.7016602
-0.001980162409300551,-23.155373179592583,2.7094727
-0.0020550915208731903,-23.369922196384312,2.7172852
-0.002130206161577521,-23.582114601265356,2.7250977
-0.002205501821976031,-23.791909205825416,2.7329102
-0.0022809740707540713,-23.99930947452515,2.7407227
-0.0023566186048696804,-24.20435497312321,2.7485352
-0.002432431248368289,-24.407117939369474,2.7563477
-0.002508407947514292,-24.607702656246115,2.7641602
-0.002584544771236968,-24.806242467008673,2.7719727
-0.0026608378875151114,-25.00289825886032,2.7797852
-0.0027372835153178033,-25.197859911044127,2.7875977
-0.0028138778960200158,-25.39134293584715,2.7954102
-0.0028906173043409884,-25.5835795802559,2.8032227
-0.002967498071840643,-25.774811087250445,2.8110352
-0.0030445166023725183,-25.96528033950329,2.8188477
-0.0031216693847370353,-26.155224923157885,2.8266602
-0.003198953009131728,-26.344878242883038,2.8344727
-0.0032763641859480195,-26.534475780688414,2.8422852
-0.0033538997658681636,-26.724252698042356,2.8500977
-0.0034315567596769265,-26.91443308204674,2.8579102
-0.0035093323396968596,-27.105222526850422,2.8657227
-0.003587223790890167,-27.296804448429885,2.8735352
-0.0036652284257510494,-27.489336686670363,2.8813477
-0.003743343548558251,-27.682954375530024,2.8891602
-0.0038215665046979867,-27.877780988014145,2.8969727
-0.003899894730906476,-28.07393369994525,2.9047852
-0.003978325740636458,-28.271513696210068,2.9125977
-0.0040568570779129865,-28.470595544603906,2.9204102
-0.004135486278757839,-28.67122808391994,2.9282227
-0.004214210836135679,-28.873439665174974,2.9360352
-0.0042930281735969154,-29.07724171525017,2.9438477
-0.004371935655780235,-29.282632101502735,2.9516602
-0.004450930627466838,-29.48960170966282,2.9594727
-0.004530010432798405,-29.69814721730281,2.9672852
-0.004609172391663196,-29.908280539391722,2.9750977
-0.0046884137430430175,-30.120023370094106,2.9829102
-0.004767731569389184,-30.333394658605147,2.9907227
-0.004847122731445969,-30.54840402120291,2.9985352
-0.004926583876982503,-30.765051818137426,3.0063477
-0.005006111562862727,-30.98333051322092,3.0141602
-0.005085702416081978,-31.203223433399735,3.0219727
-0.00516535321506431,-31.42470338839898,3.0297852
-0.005245060859896725,-31.647737278458298,3.0375977
-0.005324822283162119,-31.872294852606952,3.0454102
-0.005404634382189386,-32.09835154292087,3.0532227
-0.005484494018853409,-32.325882624067766,3.0610352
-0.0055643980549773256,-32.55486197977912,3.0688477
