Displacement (mm),Force (N),Time (s)
-0.009494687941156868,-5.182251619655955,0.021972656
-0.00950523396340915,-5.165713122739328,0.029785156
-0.009515623740897396,-5.148734214451544,0.037597656
-0.00952585624740503,-5.131378726779527,0.045410156
-0.009535930654478268,-5.113707388682893,0.053222656
-0.00954584628099085,-5.09577670041443,0.061035156
-0.009555602579459062,-5.077640231153949,0.068847656
-0.009565199200487816,-5.059352937722738,0.076660156
-0.00957463607562934,-5.040974470508902,0.084472656
-0.00958391337573273,-5.022569264753085,0.092285156
-0.009593031344156028,-5.004205042692126,0.10009766
-0.00960199017163492,-4.985949670195889,0.10791016
-0.009610789991455631,-4.967868290621777,0.11572266
-0.009619430937755306,-4.950024996260653,0.12353516
-0.009627913209410727,-4.93248728218072,0.13134766
-0.009636237106653886,-4.9153269839400044,0.13916016
-0.009644403027034633,-4.898615164719135,0.14697266
-0.009652411444608263,-4.882415837967696,0.15478516
-0.009660262910250055,-4.8667839329125115,0.16259766
-0.009667958073835877,-4.851766818549392,0.17041016
-0.009675497691558996,-4.8374065172473015,0.17822266
-0.00968288259004087,-4.823740348397105,0.18603516
-0.009690113605583413,-4.81080008234437,0.19384766
-0.00969719156901109,-4.798612351237751,0.20166016
-0.009704117351745358,-4.787199735805136,0.20947266
-0.00971089188125573,-4.776580911873932,0.21728516
-0.009717516079070588,-4.766770824232693,0.22509766
-0.009723990780649045,-4.757780674031771,0.23291016
-0.009730316697566355,-4.749617216379399,0.24072266
-0.009736494433942495,-4.742281218492477,0.24853516
-0.009742524537648423,-4.735766787297468,0.25634766
-0.009748407545459936,-4.730064281357388,0.26416016
-0.00975414397797399,-4.725164082279802,0.27197266
-0.009759734303545993,-4.72105661887218,0.27978516
-0.009765178956125789,-4.7177303895168095,0.28759766
-0.00977047844649383,-4.715173211466154,0.29541016
-0.009775633499896425,-4.7133746643431,0.30322266
-0.009780645098745707,-4.712323755071593,0.31103516
-0.009785514397826246,-4.712005525670654,0.31884766
-0.009790242617536445,-4.712402164749025,0.32666016
-0.00979483099315007,-4.713495230042408,0.33447266
-0.009799280760890502,-4.7152651853969205,0.34228516
-0.009803593166262782,-4.717688330629053,0.35009766
-0.009807769485254561,-4.720734973308866,0.35791016
-0.009811811010458082,-4.724373722569828,0.36572266
-0.009815718979492814,-4.728578100223298,0.37353516
-0.009819494488582322,-4.733326952853724,0.38134766
-0.009823138439846462,-4.738598642547572,0.38916016
-0.009826651533345696,-4.744366677268115,0.39697266
-0.009830034308220166,-4.750602092469111,0.40478516
-0.009833287239114299,-4.757280032458974,0.41259766
-0.009836410837096361,-4.7643822213818225,0.42041016
-0.0098394056913222,-4.771891527076292,0.42822266
-0.009842272480030546,-4.779784017730522,0.43603516
-0.009845011991070155,-4.7880257306056535,0.44384766
-0.009847625110891722,-4.796577060459509,0.45166016
-0.009850112761248772,-4.805400209224691,0.45947266
-0.009852475839501492,-4.814461976811515,0.46728516
-0.009854715206047018,-4.823732706859988,0.47509766
-0.009856831699110377,-4.833188101362235,0.48291016
-0.009858826122503392,-4.842813181790072,0.49072266
-0.009860699201552922,-4.852603271662034,0.49853516
-0.009862451581543669,-4.862561895195229,0.50634766
-0.00986408389039992,-4.872696399430724,0.51416016
-0.009865596784291678,-4.883011390079561,0.52197266
-0.009866990932758364,-4.893504720989413,0.52978516
-0.00986826697684852,-4.904169816636052,0.53759766
-0.009869425470665803,-4.914999257846948,0.54541016
-0.009870466800316231,-4.925984027513207,0.55322266
-0.009871391126448375,-4.93711085831913,0.56103516
-0.009872198405885354,-4.948361689244632,0.56884766
-0.009872888477257013,-4.959714810852059,0.57666016
-0.009873461142400767,-4.971145134331282,0.58447266
-0.009873916206299047,-4.982623246727386,0.59228516
-0.009874253492123041,-4.994115409877735,0.60009766
-0.009874472842108,-5.0055852804016085,0.60791016
-0.009874574085566242,-5.01699703631217,0.61572266
-0.009874556973801855,-5.028318286815234,0.62353516
-0.009874421129439802,-5.039518551510422,0.63134766
-0.009874166068018046,-5.05056361495109,0.63916016
-0.009873791289659309,-5.061412971216346,0.64697266
-0.009873296371761162,-5.0720233687782486,0.65478516
-0.009872681011584637,-5.082353052306413,0.66259766
-0.009871945027832937,-5.092363118616642,0.67041016
-0.009871088342984745,-5.1020172804278845,0.67822266
-0.009870110945601376,-5.111281346123697,0.68603516
-0.00986901283958476,-5.120125738326765,0.69384766
-0.009867794033958597,-5.128530756478279,0.70166016
-0.009866454613656258,-5.1364870001939025,0.70947266
-0.009864994846370328,-5.143989975109117,0.71728516
-0.009863415230129728,-5.15103465848851,0.72509766
-0.009861716419554916,-5.157613278203231,0.73291016
-0.009859899097416901,-5.163717642860828,0.74072266
-0.009857963922065066,-5.169342416747331,0.74853516
-0.009855911556856455,-5.174482937245879,0.75634766
-0.00985374269550309,-5.179129646940245,0.76416016
-0.009851458048146588,-5.183267826699571,0.77197266
-0.009849058326458555,-5.186883390467191,0.77978516
-0.009846544264370634,-5.189966254916396,0.78759766
-0.009843916638216054,-5.192508230796278,0.79541016
-0.009841176251870901,-5.194499255680983,0.80322266
-0.009838323934207633,-5.195924507923254,0.81103516
-0.009835360586907633,-5.19676546601605,0.81884766
-0.009832287238470593,-5.197004908738905,0.82666016
-0.009829105049828393,-5.196629956737673,0.83447266
-0.009825815276517592,-5.195630699599657,0.84228516
-0.00982241923277706,-5.193998266682677,0.85009766
-0.009818918285058525,-5.191726718149894,0.85791016
-0.009815313859622938,-5.188817307032742,0.86572266
-0.009811607439801917,-5.185279555763958,0.87353516
-0.009807800548409256,-5.181128539460769,0.88134766
-0.009803894723414319,-5.176383544736675,0.88916016
-0.009799891505229107,-5.171070973381231,0.89697266
-0.009795792460806684,-5.1652275766309135,0.90478516
-0.00979159924276219,-5.158899478712269,0.91259766
-0.00978731363578706,-5.15213791481009,0.92041016
-0.009782937544233766,-5.144996419790517,0.92822266
-0.009778472937326166,-5.137532284356333,0.93603516
-0.009773921815969425,-5.129807714124671,0.94384766
-0.00976928622464696,-5.121885662720551,0.95166016
-0.009764568259226171,-5.113822844105666,0.95947266
-0.009759770048094226,-5.105665025123043,0.96728516
-0.009754893749549012,-5.097448849601366,0.97509766
-0.009749941562354376,-5.089209564990336,0.98291016
-0.00974491570478297,-5.080986509717044,0.99072266
-0.009739818390159648,-5.072821220815695,0.99853516
-0.009734651839625855,-5.064752532942749,1.0063477
-0.009729418289931199,-5.056815357008131,1.0141602
-0.009724119959379269,-5.049044576148679,1.0219727
-0.009718759011475142,-5.041480037560941,1.0297852
-0.009713337569063552,-5.034166411325999,1.0375977
-0.009707857774104831,-5.027146547566112,1.0454102
-0.00970232181510086,-5.020456482556582,1.0532227
-0.009696731870163705,-5.014127145233913,1.0610352
-0.009691090038415891,-5.00818730518029,1.0688477
-0.009685398345457421,-5.002663697653752,1.0766602
-0.00967965879297602,-4.997578671895099,1.0844727
-0.00967387338378621,-4.9929461819654835,1.0922852
-0.009668044116380331,-4.988769307976874,1.1000977
-0.009662172984446597,-4.985043590671938,1.1079102
-0.009656261996693484,-4.981764482668611,1.1157227
-0.009650313192178838,-4.978929557659008,1.1235352
-0.009644328622203317,-4.976533300516786,1.1313477
-0.009638310301880575,-4.974564041617462,1.1391602
-0.009632260159896397,-4.973005917722117,1.1469727
-0.009626180018308814,-4.971840289845987,1.1547852
-0.009620071617767859,-4.971045905726915,1.1625977
-0.009613936674883111,-4.970599649217038,1.1704102
-0.009607776927108626,-4.970478865905354,1.1782227
-0.009601594135441061,-4.970666306144885,1.1860352
-0.009595390092074527,-4.971153598730141,1.1938477
-0.009589166687771303,-4.971939292563715,1.2016602
-0.009582925999685785,-4.973024194507427,1.2094727
-0.009576670318507048,-4.974407652786551,1.2172852
-0.009570402084026514,-4.976086375630276,1.2250977
-0.009564123773650018,-4.9780546475110095,1.2329102
-0.009557837844385254,-4.980303392608692,1.2407227
-0.009551546786236858,-4.9828186144004265,1.2485352
-0.00954525322455564,-4.985581673596753,1.2563477
-0.009538959972589798,-4.98857190000565,1.2641602
-0.009532670000684097,-4.991769460604702,1.2719727
-0.009526386348663856,-4.995156044288072,1.2797852
-0.009520112056880635,-4.998713632546637,1.2875977
-0.009513850187863515,-5.002423854816217,1.2954102
-0.009507603894780402,-5.006268919900074,1.3032227
-0.009501376436247861,-5.01023227657533,1.3110352
-0.009495171134829465,-5.014296638912069,1.3188477
-0.009488991350106842,-5.018440040340105,1.3266602
-0.00948284050968548,-5.022633627439483,1.3344727
-0.009476722185926021,-5.026843859860426,1.3422852
-0.009470640169790196,-5.031037992389568,1.3500977
-0.009464598487830699,-5.035188188549531,1.3579102
-0.009458601343698778,-5.039270360637387,1.3657227
-0.009452653033345054,-5.043261358111924,1.3735352
-0.00944675789203828,-5.0471409523432476,1.3813477
-0.00944092027014877,-5.050897049898941,1.3891602
-0.009435144533011228,-5.0545285700792455,1.3969727
-0.009429435111040605,-5.058043774370532,1.4047852
-0.0094237965746384,-5.061455856407968,1.4125977
-0.00941823367114939,-5.06478023344656,1.4204102
-0.009412751319216631,-5.068034524590772,1.4282227
-0.009407354591332278,-5.07123739142022,1.4360352
-0.009402048689695769,-5.074403988968197,1.4438477
-0.009396838907137868,-5.077539609882714,1.4516602
-0.0093917305734312,-5.080635533559434,1.4594727
-0.009386729001359369,-5.083672210270013,1.4672852
-0.00938183945639213,-5.086628637982447,1.4750977
-0.009377067160052974,-5.089488279124176,1.4829102
-0.009372417315222701,-5.092237141724495,1.4907227
-0.009367895135257816,-5.094859526782812,1.4985352
-0.009363505863311979,-5.097336418494876,1.5063477
-0.009359254775750177,-5.0996470242401335,1.5141602
-0.009355147167127266,-5.101771552919548,1.5219727
-0.009351188317532299,-5.103692484924288,1.5297852
-0.009347383452594409,-5.1053926175291995,1.5375977
-0.009343737708255561,-5.1068517731637035,1.5454102
-0.009340256110056417,-5.1080459852853535,1.5532227
-0.009336943578841253,-5.108947770717856,1.5610352
-0.009333804954009152,-5.109523494582698,1.5688477
-0.009330844999900613,-5.109730876048625,1.5766602
-0.009328068387244662,-5.109521985709649,1.5844727
-0.009325479682723748,-5.1088495599269805,1.5922852
-0.009323083362376371,-5.107670965875894,1.6000977
-0.009320883810587871,-5.105947774825108,1.6079102
-0.00931888525579098,-5.103642829318426,1.6157227
-0.009317091669477624,-5.100718629803817,1.6235352
-0.009315506738848825,-5.097140099844136,1.6313477
-0.009314133964527358,-5.092880690703717,1.6391602
-0.009312976802718217,-5.087926188455353,1.6469727
-0.009312038774094308,-5.08227332121849,1.6547852
-0.00931132352623541,-5.075926558582824,1.6625977
-0.009310834827230526,-5.068895824595479,1.6704102
-0.009310576488773202,-5.061195918306276,1.6782227
-0.009310552284702917,-5.052847673584937,1.6860352
-0.009310765911336288,-5.043878859394344,1.6938477
-0.00931122096366488,-5.0343242944429605,1.7016602
-0.009311920893666448,-5.024226512821639,1.7094727
-0.009312868958875033,-5.013637832417414,1.7172852
-0.00931406819170724,-5.002622941832619,1.7250977
-0.009315521407961817,-4.991258750819422,1.7329102
-0.00931723125392254,-4.979631252054784,1.7407227
-0.00931920026643688,-4.967833484334194,1.7485352
-0.009321430904086284,-4.955965884558771,1.7563477
-0.009323925538458856,-4.944137384645819,1.7641602
-0.00932668644472367,-4.9324652991635585,1.7719727
-0.00932971584261128,-4.9210717386088385,1.7797852
-0.009333015973155522,-4.9100789640754225,1.7875977
-0.009336589130852065,-4.899608903832605,1.7954102
-0.009340437632622023,-4.889785514292264,1.8032227
-0.009344563779818783,-4.880734535152615,1.8110352
-0.009348969830994133,-4.872580184161855,1.8188477
-0.009353657974732494,-4.86544306972468,1.8266602
-0.009358630324935833,-4.859443328234981,1.8344727
-0.00936388894223666,-4.854709926296275,1.8422852
-0.009369435827721132,-4.85139011813889,1.8500977
-0.009375272872299003,-4.849650532316617,1.8579102
-0.00938140181438789,-4.849670299592618,1.8657227
-0.009387824210405722,-4.851634806150515,1.8735352
-0.009394541373691752,-4.855736293947105,1.8813477
-0.009401554302445833,-4.862178041364545,1.8891602
-0.0094088636710557,-4.871175524854241,1.8969727
-0.009416469927888999,-4.8829537588588,1.9047852
-0.009424373453780324,-4.8977434061830545,1.9125977
-0.009432574659010637,-4.915778652236068,1.9204102
-0.0094410739732225,-4.9372973229372015,1.9282227
-0.009449871824488037,-4.962540266512895,1.9360352
-0.009458968674838277,-4.991748494764849,1.9438477
-0.009468365080990677,-5.025159558163959,1.9516602
-0.00947806175168758,-5.0630076922174565,1.9594727
-0.009488059589797388,-5.105530317323238,1.9672852
-0.00949835970059905,-5.15297262336147,1.9750977
-0.00950896337803311,-5.205581418639272,1.9829102
-0.009519872100018537,-5.263594889118512,1.9907227
-0.00953108753297477,-5.327238027938702,1.9985352
-0.009542611536568341,-5.396722947661124,2.0063477
-0.00955444617842973,-5.472248623854668,2.0141602
-0.009566593749486612,-5.553995424536955,2.0219727
-0.009579056750057819,-5.642117694959066,2.0297852
-0.009591837842693952,-5.736742472155895,2.0375977
-0.009604939797254944,-5.837974046619115,2.0454102
-0.009618365452669099,-5.945898979313988,2.0532227
-0.009632117685919461,-6.060588489837046,2.0610352
-0.009646199357090516,-6.182098131321085,2.0688477
-0.00966061323138811,-6.310468381814522,2.0766602
-0.009675361905535949,-6.445729101078196,2.0844727
-0.009690447749264903,-6.587904623897092,2.0922852
-0.009705872860100865,-6.737015434319152,2.1000977
-0.009721639041374042,-6.893077151725396,2.1079102
-0.009737747809450706,-7.056098999411662,2.1157227
-0.009754200409680702,-7.226084390019286,2.1235352
-0.009770997828291718,-7.403034815795421,2.1313477
-0.009788140810424922,-7.586953067519449,2.1391602
-0.009805629867762894,-7.777841929832766,2.1469727
-0.009823465233943987,-7.975699990019079,2.1547852
-0.00984164676966246,-8.180518049931921,2.1625977
-0.009860173879419787,-8.392276950467156,2.1704102
-0.009879045488296236,-8.610946097829377,2.1782227
-0.00989826005757809,-8.836482804841228,2.1860352
-0.009917815595500486,-9.068832163949498,2.1938477
-0.009937709665234024,-9.307927735312157,2.2016602
-0.009957939424671524,-9.553694929185438,2.2094727
-0.009978501709523621,-9.806055370838218,2.2172852
-0.00999939313963189,-10.064928068178784,2.2250977
-0.010020610220840423,-10.330227118636506,2.2329102
-0.010042149417166607,-10.601860008411501,2.2407227
-0.0100640071863903,-10.87973143988257,2.2485352
-0.010086180008023677,-11.163750196907879,2.2563477
-0.010108664440537034,-11.453829964335554,2.2641602
-0.010131457206554043,-11.749883355599485,2.2719727
-0.01015455527095728,-12.051817268498372,2.2797852
-0.01017795587353654,-12.35953279759999,2.2875977
-0.010201656490007692,-12.672926201228488,2.2954102
-0.010225654736782296,-12.991887279638132,2.3032227
-0.010249948283710451,-13.316294951917525,2.3110352
-0.010274534820308708,-13.64601513178768,2.3188477
-0.010299412053383954,-13.980905984217422,2.3266602
-0.010324577682512121,-14.320828276755925,2.3344727
-0.010350029324872381,-14.66565213036416,2.3422852
-0.010375764418311131,-15.015253315156535,2.3500977
-0.010401780160370728,-15.36950375788521,2.3579102
-0.010428073512744484,-15.728267441741064,2.3657227
-0.010454641266975963,-16.091405303455527,2.3735352
-0.0104814801349046,-16.4587820836809,2.3813477
-0.010508586813526136,-16.830266204162893,2.3891602
-0.01053595801143695,-17.205723998289777,2.3969727
-0.010563590439897321,-17.585017275858664,2.4047852
-0.010591480757954163,-17.968007360644332,2.4125977
-0.0106196255003985,-18.354560188699953,2.4204102
-0.010648021050811455,-18.74454671750764,2.4282227
-0.010676663678895979,-19.1378410646529,2.4360352
-0.010705549615386563,-19.534323401113987,2.4438477
-0.010734675124041651,-19.933890400450917,2.4516602
-0.010764036538897306,-20.33646706171285,2.4594727
-0.010793630271628395,-20.74200704232996,2.4672852
-0.010823452815157175,-21.150480016104837,2.4750977
-0.010853500757604799,-21.561858700799945,2.4829102
-0.010883770802599934,-21.97611249440038,2.4907227
-0.010914259786620936,-22.39320882337663,2.4985352
-0.010944964693085413,-22.813123388630093,2.5063477
-0.010975882653037245,-23.235852778403675,2.5141602
-0.011007010897692985,-23.661417827672263,2.5219727
-0.011038346660768816,-24.089855099301793,2.5297852
-0.011069887098388128,-24.521204436024306,2.5375977
-0.011101629290364309,-24.95549879172523,2.5454102
-0.011133570310007532,-25.3927569059916,2.5532227
-0.011165707294587329,-25.83297752354029,2.5610352
-0.011198037459953559,-26.276137763954477,2.5688477
-0.011230558052962665,-26.72220409068121,2.5766602
-0.011263266268109601,-27.17115130280825,2.5844727
-0.011296159167345684,-27.622970388950815,2.5922852
-0.01132923365094158,-28.077661609427395,2.6000977
-0.011362486484314906,-28.535226847518263,2.6079102
-0.011395914326816102,-28.99567034345351,2.6157227
-0.011429513740525641,-29.45900398325415,2.6235352
-0.011463281211250323,-29.925246184204628,2.6313477
-0.011497213195279804,-30.39440993006738,2.6391602
-0.011531306167677032,-30.86648853093905,2.6469727
-0.011565556638282086,-31.341451737275495,2.6547852
-0.011599961121113453,-31.819256394842853,2.6625977
-0.011634516084019641,-32.29986153435152,2.6704102
-0.011669217939590568,-32.783234691189364,2.6782227
-0.011704063117737128,-33.26934799655851,2.6860352
-0.011739048186050222,-33.758173932158186,2.6938477
-0.011774169952550477,-34.24969159082209,2.7016602
-0.011809425518550444,-34.74390032220175,2.7094727
-0.011844812253228183,-35.240823480192056,2.7172852
-0.01188032767076175,-35.7404938067134,2.7250977
-0.01191596927764607,-36.242934890563056,2.7329102
-0.011951734484820913,-36.74815622173786,2.7407227
-0.011987620591976944,-37.25615759332429,2.7485352
-0.012023624818887482,-37.7669280155976,2.7563477
-0.01205974436235238,-38.28043702705618,2.7641602
-0.012095976399543622,-38.796628154970186,2.7719727
-0.012132317997512836,-39.31542203577766,2.7797852
-0.012168766014407535,-39.83672603905618,2.7875977
-0.01220531705425371,-40.36044117855908,2.7954102
-0.012241967458635237,-40.88646007023095,2.8032227
-0.012278713340231616,-41.41465841565972,2.8110352
-0.01231555064432554,-41.94489237953871,2.8188477
-0.012352475164505513,-42.47700713751447,2.8266602
-0.012389482513595063,-43.010844425136675,2.8344727
-0.012426568150430075,-43.546241494946365,2.8422852
-0.01246372747278678,-44.083029627513945,2.8500977
-0.012500955871147832,-44.62104029081756,2.8579102
-0.012538248712004815,-45.160117250391856,2.8657227
-0.012575601318009886,-45.70012814371817,2.8735352
-0.012613008987782351,-46.24096989692751,2.8813477
-0.012650467053254143,-46.782564439330095,2.8891602
-0.012687970964434279,-47.324849941885425,2.8969727
-0.012725516374508321,-47.86778080085894,2.9047852
-0.012763099185697794,-48.41133624470287,2.9125977
-0.012800715563896501,-48.955521675753396,2.9204102
-0.012838361971113432,-49.50035930831396,2.9282227
-0.012876035213079477,-50.045880416632386,2.9360352
-0.012913732434144681,-50.59212529261616,2.9438477
-0.012951451013787479,-51.1391462501274,2.9516602
-0.012989188410642661,-51.687004036132684,2.9594727
-0.013026942044401317,-52.23575451661907,2.9672852
-0.013064709251444952,-52.785435257750066,2.9750977
-0.013102487301166888,-53.33605827474879,2.9829102
-0.013140273451967555,-53.887607990033715,2.9907227
-0.013178065006276714,-54.44004550334526,2.9985352
-0.013215859324326867,-54.993314707733795,3.0063477
-0.013253653795901963,-55.547340838386795,3.0141602
-0.013291445796034187,-56.102025336172275,3.0219727
-0.013329232648449782,-56.65725046736443,3.0297852
-0.013367011609511436,-57.21289157455017,3.0375977
-0.013404779872721677,-57.76882117619496,3.0454102
-0.013442534586740834,-58.32490227066472,3.0532227
