Displacement (mm),Force (N),Time (s)
0.0015821965854329453,-6.339645904633754,0.022949219
0.001585449615831672,-6.33500634839715,0.030761719
0.0015888633646648038,-6.330411921860666,0.038574219
0.0015924376370780532,-6.325852940341378,0.046386719
0.0015961722353019377,-6.321333093746871,0.054199219
0.0016000669469088307,-6.316871905103399,0.062011719
0.001604121489930093,-6.312498221437631,0.069824219
0.0016083355006569458,-6.308241483744199,0.077636719
0.0016127085881618487,-6.304129044482354,0.085449219
0.0016172403845439564,-6.30018920447746,0.093261719
0.0016219305423003318,-6.296452630191755,0.10107422
0.0016267786999977084,-6.2929491685740535,0.10888672
0.0016317844676303555,-6.289704284858269,0.11669922
0.0016369474575042894,-6.286738347660647,0.12451172
0.0016422673095996593,-6.284067660661966,0.13232422
0.001647743650411682,-6.281706357470877,0.14013672
0.0016533760360063299,-6.279666953908762,0.14794922
0.0016591639645725078,-6.277956099383799,0.15576172
0.0016651069300205506,-6.276569295533542,0.16357422
0.0016712044402548956,-6.275491300016999,0.17138672
0.001677456003083263,-6.2747002117895185,0.17919922
0.00168386112002931,-6.274169160551582,0.18701172
0.0016904192870698797,-6.273866240065845,0.19482422
0.0016971299877346603,-6.273756681215865,0.20263672
0.001703992687444512,-6.273806831886852,0.21044922
0.0017110068347199537,-6.273987950224882,0.21826172
0.0017181718519520695,-6.274278772537764,0.22607422
0.0017254871038018176,-6.274665566366468,0.23388672
0.0017329518499937064,-6.275139693539409,0.24169922
0.0017405651891991888,-6.275692849701293,0.24951172
0.0017483260033923339,-6.276312133394855,0.25732422
0.0017562329241602062,-6.276981614843508,0.26513672
0.001764284325528996,-6.277690208564091,0.27294922
0.0017724783136660643,-6.278435328789906,0.28076172
0.0017808126947341308,-6.2792193284098134,0.28857422
0.0017892849412383816,-6.280045706788866,0.29638672
0.0017978921914659637,-6.280916716724828,0.30419922
0.0018066313113727557,-6.281830071987364,0.31201172
0.001815499005687326,-6.282776869506423,0.31982422
0.001824491913695405,-6.283742582197099,0.32763672
0.00183360664339885,-6.2847083441769165,0.33544922
0.0018428397414337137,-6.285650846334238,0.34326172
0.0018521876219850014,-6.286542759098085,0.35107422
0.001861646499269237,-6.287354568184065,0.35888672
0.001871212370997206,-6.288058041084673,0.36669922
0.0018808810759266715,-6.288630808598832,0.37451172
0.0018906483867960101,-6.2890588046285165,0.38232422
0.0019005100708221784,-6.289334985547466,0.39013672
0.001910461912652024,-6.289456885679186,0.39794922
0.001920499742660473,-6.289426656997381,0.40576172
0.0019306194864399267,-6.289254632317926,0.41357422
0.0019408172104473178,-6.288963203970449,0.42138672
0.0019510891368689953,-6.288586940244748,0.42919922
0.0019614316362088335,-6.288168312447423,0.43701172
0.0019718412248026203,-6.287751267378231,0.44482422
0.001982314571460503,-6.287375182620935,0.45263672
0.0019928484920633625,-6.287071963311095,0.46044922
0.002003439926217001,-6.286866878288974,0.46826172
0.002014085918559677,-6.286780574191389,0.47607422
0.002024783612415252,-6.286830588621688,0.48388672
0.002035530238043179,-6.287030014721065,0.49169922
0.0020463230896247083,-6.287381876919028,0.49951172
0.0020571595106265816,-6.287875020005612,0.50732422
0.00206803691516036,-6.288486716177202,0.51513672
0.002078952850239212,-6.289188062403532,0.52294922
0.0020899050643774825,-6.289946500258732,0.53076172
0.002100891528573168,-6.290724745801058,0.53857422
0.002111910376015964,-6.2914796047495924,0.54638672
0.0021229598098752712,-6.292164713492548,0.55419922
0.002134038098564786,-6.292733771067637,0.56201172
0.0021451436624020355,-6.293137241904514,0.56982422
0.0021562751163614123,-6.2933151295752525,0.57763672
0.0021674312330474794,-6.293193592084438,0.58544922
0.0021786109108403564,-6.292687613957721,0.59326172
0.0021898131829470855,-6.291707527324088,0.60107422
0.0022010372272059466,-6.290165136460326,0.60888672
0.0022122823244185644,-6.28797505607601,0.61669922
0.0022235477736662155,-6.28505368894956,0.62451172
0.0022348328396347974,-6.281321939782494,0.63232422
0.0022461367603517474,-6.276711300302187,0.64013672
0.0022574587599891094,-6.271169084696609,0.64794922
0.002268798039920867,-6.264660082565897,0.65576172
0.0022801537874170834,-6.257164757427381,0.66357422
0.0022915252257958083,-6.2486774904874505,0.67138672
0.0023029116768902807,-6.239206371434259,0.67919922
0.002314312573315114,-6.228771753061367,0.68701172
0.002325727375487555,-6.2174034356120105,0.69482422
0.002337155445653225,-6.205139367397487,0.70263672
0.002348595985017309,-6.192025894471166,0.71044922
0.0023600480552635286,-6.178116846516004,0.71826172
0.0023715106206869023,-6.163469764554966,0.72607422
0.002382982550701667,-6.148141267675851,0.73388672
0.0023944625658718598,-6.132184305540349,0.74169922
0.002405949159556602,-6.115646633040079,0.74951172
0.002417440561545276,-6.098567984591171,0.75732422
0.002428934785447633,-6.080976715563023,0.76513672
0.0024404297048300394,-6.062889581751485,0.77294922
0.002451923068240507,-6.044315631073878,0.78076172
0.00246341245321692,-6.025264049090811,0.78857422
0.00247489521940717,-6.005753171188634,0.79638672
0.0024863684960945223,-5.985812445877144,0.80419922
0.0024978292032953684,-5.965476933059919,0.81201172
0.00250927408542797,-5.944784552654134,0.81982422
0.002520699744956799,-5.923778860418441,0.82763672
0.002532102673821415,-5.902511073953119,0.83544922
0.0025434792583530516,-5.881039302427317,0.84326172
0.0025548257425663553,-5.859425446890453,0.85107422
0.0025661381984029884,-5.837729127293986,0.85888672
0.0025774125496213413,-5.816002892292382,0.86669922
0.0025886446120581596,-5.794291761404152,0.87451172
0.0025998301024478592,-5.772630489289795,0.88232422
0.0026109646434232634,-5.751035900669604,0.89013672
0.00262204379869631,-5.729502993481224,0.89794922
0.002633063109716108,-5.708008040990837,0.90576172
0.0026440180989041463,-5.686512840136679,0.91357422
0.0026549042493303645,-5.6649673806684016,0.92138672
0.0026657169964909235,-5.643311668040299,0.92919922
0.0026764517595834563,-5.621477211764211,0.93701172
0.002687103990634253,-5.599390153728188,0.94482422
0.0026976691807472724,-5.5769778843952205,0.95263672
0.0027081428213172934,-5.554175862592675,0.96044922
0.002718520388300444,-5.530929533778703,0.96826172
0.0027287973690810117,-5.507191942366112,0.97607422
0.0027389692819337914,-5.482919795588155,0.98388672
0.0027490316577298965,-5.4580695494547475,0.99169922
0.0027589800009731173,-5.432597713877712,0.99951172
0.0027688097642243636,-5.406464442952434,1.0073242
0.0027785163572569614,-5.379630484065536,1.0151367
0.002788095174747681,-5.3520469662660615,1.0229492
0.0027975416041319703,-5.323650902402271,1.0307617
0.002806850999456456,-5.294372927717744,1.0385742
0.002816018631732431,-5.264151739658242,1.0463867
0.0028250396273774205,-5.23294799156265,1.0541992
0.002833908913890902,-5.200752236523187,1.0620117
0.0028426211904857696,-5.167585330862816,1.0698242
0.002851170913371291,-5.133496524735814,1.0776367
0.0028595522724317725,-5.098562745374465,1.0854492
0.0028677591527195676,-5.062886952400444,1.0932617
0.002875785105997402,-5.026593969436925,1.1010742
0.002883623394146157,-4.989822975590946,1.1088867
0.0028912671258436717,-4.952719137541102,1.1166992
0.0028987093905811626,-4.9154291525359906,1.1245117
0.0029059432895259976,-4.878098685435713,1.1323242
0.002912961884537131,-4.840867710618824,1.1401367
0.0029197581470572676,-4.803865498205043,1.1479492
0.0029263249594594426,-4.767207077251141,1.1557617
0.002932655173700101,-4.730990674416951,1.1635742
0.002938741686511751,-4.695296413353165,1.1713867
0.002944577464033018,-4.660187358759901,1.1791992
0.0029501554812823693,-4.625712812378843,1.1870117
0.0029554686198384134,-4.591911376245389,1.1948242
0.002960509599557498,-4.558813679574245,1.2026367
0.0029652709921221677,-4.526447274962841,1.2104492
0.0029697453116123273,-4.494839874539135,1.2182617
0.00297392512338177,-4.464016586361913,1.2260742
0.0029778031051747554,-4.433996621797498,1.2338867
0.0029813720215829194,-4.404794012164028,1.2416992
0.0029846246234172835,-4.376418467172768,1.2495117
0.0029875535394348917,-4.348873304795083,1.2573242
0.002990151215664609,-4.322152187336886,1.2651367
0.0029924099088866913,-4.296237475015249,1.2729492
0.0029943217089171614,-4.271102400704353,1.2807617
0.00299587855478203,-4.246717603593642,1.2885742
0.002997072251408526,-4.223058681051885,1.2963867
0.002997894521497631,-4.200108908766647,1.3041992
0.002998337069329369,-4.177854964682796,1.3120117
0.0029983916015955568,-4.156280793066879,1.3198242
0.0029980498184019704,-4.135366244998897,1.3276367
0.0029973034242196787,-4.115090808373002,1.3354492
0.002996144163964687,-4.095437802188907,1.3432617
0.0029945638654972685,-4.076396359532242,1.3510742
0.002992554475460261,-4.057961497671129,1.3588867
0.002990108068874357,-4.040132425035848,1.3666992
0.0029872168240356045,-4.022910110127825,1.3745117
0.002983872978624994,-4.006295480027747,1.3823242
0.0029800687895196565,-3.990288635926045,1.3901367
0.0029757965251504836,-3.974889672700957,1.3979492
0.002971048500570659,-3.9600997223059378,1.4057617
0.0029658171021364234,-3.945920325049773,1.4135742
0.0029600947563995944,-3.932353158308475,1.4213867
0.002953873902326541,-3.919402361750744,1.4291992
0.0029471470412087432,-3.9070777085527744,1.4370117
0.0029399068354076198,-3.8953973678222784,1.4448242
0.0029321461785656337,-3.884391392290554,1.4526367
0.002923858198606263,-3.874103133630652,1.4604492
0.0029150362195643482,-3.8645853368142857,1.4682617
0.002905673755747561,-3.8558957734682524,1.4760742
0.0028957645737200206,-3.8480970391177878,1.4838867
0.00288530276465666,-3.8412577785613995,1.4916992
0.002874282738878936,-3.8354527780388277,1.4995117
0.002862699140385069,-3.8307629105307415,1.5073242
0.002850546789313562,-3.8272752379114237,1.5151367
0.002837820719759907,-3.825081627137801,1.5229492
0.0028245162454694364,-3.8242762642660013,1.5307617
0.002810628982724714,-3.8249538852335583,1.5385742
0.002796154854906969,-3.827207312593865,1.5463867
0.0027810901127116186,-3.8311225811732292,1.5541992
0.0027654313466662886,-3.8367736585092405,1.5620117
0.0027491754585120464,-3.844220492425335,1.5698242
0.0027323195946761356,-3.8535109834382495,1.5776367
0.002714861078096693,-3.8646823987331227,1.5854492
0.0026967973756169307,-3.87775952143166,1.5932617
0.0026781260885832053,-3.892752122144235,1.6010742
0.002658844921394347,-3.909653900237542,1.6088867
0.0026389516385204297,-3.9284436614534597,1.6166992
0.0026184440611758224,-3.9490897262595603,1.6245117
0.002597320096976761,-3.9715565577124106,1.6323242
0.002575577759018634,-3.9958114298784464,1.6401367
0.0025532151703660092,-4.021828864625963,1.6479492
0.0025302305507672986,-4.049589916802145,1.6557617
0.0025066221499146137,-4.079076514263034,1.6635742
0.002482388135253953,-4.1102642286806,1.6713867
0.0024575264994444908,-4.143115215319562,1.6791992
0.0024320350349583374,-4.177573339905991,1.6870117
0.002405911388006773,-4.213564562011785,1.6948242
0.002379153173156387,-4.251001367227609,1.7026367
0.0023517580888027727,-4.289787340988011,1.7104492
0.0023237239501650844,-4.329821419027613,1.7182617
0.0022950485967037134,-4.371004490391107,1.7260742
0.0022657297384617147,-4.413246612498365,1.7338867
0.0022357648617495956,-4.456467702125072,1.7416992
0.0022051512685665776,-4.5005908922123785,1.7495117
0.0021738862354594847,-4.54553667518911,1.7573242
0.002141967188556152,-4.591223489919525,1.7651367
0.002109391789001256,-4.637571346315666,1.7729492
0.0020761578975062576,-4.684502292560111,1.7807617
0.0020422634539996767,-4.731937824807745,1.7885742
0.0020077063504042015,-4.779798911246736,1.7963867
0.0019724843776741953,-4.82801480612111,1.8041992
0.0019365952996468914,-4.876540704053897,1.8120117
0.0019000370077020818,-4.92537198469415,1.8198242
0.0018628076142843568,-4.974543222690084,1.8276367
0.0018249054139145378,-5.024118182547539,1.8354492
0.0017863287643285273,-5.074183027172291,1.8432617
0.001747075984123854,-5.12484126231193,1.8510742
0.001707145338278786,-5.176203428657923,1.8588867
0.0016665350980356955,-5.228374571198394,1.8666992
0.001625243604895913,-5.281447521651964,1.8745117
0.0015832692914956334,-5.335504043418807,1.8823242
0.0015406106701927702,-5.390622137633863,1.8901367
0.0014972663351341888,-5.446887099942865,1.8979492
0.0014532350005156448,-5.504399633509326,1.9057617
0.0014085155658318407,-5.563274761807262,1.9135742
0.001363107194276659,-5.623634405716796,1.9213867
0.0013170093833386118,-5.685602134288129,1.9291992
0.00127022198123069,-5.749304221144622,1.9370117
0.0012227451193141743,-5.8148724024308205,1.9448242
0.0011745791268505852,-5.882441530586589,1.9526367
0.0011257245101778358,-5.952142943472968,1.9604492
0.001076181968501378,-6.0240988977370735,1.9682617
0.0010259523886746672,-6.098419832201621,1.9760742
0.0009750368225845368,-6.17520196459008,1.9838867
0.0009234364775109813,-6.254521615589196,1.9916992
0.0008711527345239991,-6.336428759400983,1.9995117
0.0008181871770211228,-6.420947203129888,2.0073242
0.0007645415993265507,-6.508081000892906,2.0151367
0.0007102179909963832,-6.59782048807082,2.0229492
0.0006552185156686301,-6.690147278612152,2.0307617
0.0005995455029735451,-6.7850387234903256,2.0385742
0.0005432014591480375,-6.882468403071973,2.0463867
0.0004861890858250573,-6.982404678463998,2.0541992
0.0004285112951560482,-7.0848114451266495,2.0620117
0.0003701712243557581,-7.189649812292937,2.0698242
0.00031117225048236225,-7.296877647705465,2.0776367
0.0002515179897126954,-7.4064458102303865,2.0854492
0.0001912122638076032,-7.518293660528492,2.0932617
0.00013025902888226147,-7.632346545162029,2.1010742
6.866229547683846e-05,-7.748514398254228,2.1088867
6.426095654429199e-06,-7.866689069066777,2.1166992
-5.644549533957337e-05,-7.986739436500346,2.1245117
-0.00011994834408817177,-8.108507164310064,2.1323242
-0.00018407829411474336,-8.231808734698438,2.1401367
-0.00024883122899974666,-8.356445360776572,2.1479492
-0.00031420310755298793,-8.482214913215152,2.1557617
-0.0003801899304458908,-8.608920706867904,2.1635742
-0.00044678767698012894,-8.73637808307998,2.1713867
-0.000513992299219024,-8.864421359831773,2.1791992
-0.0005817997920517121,-8.992911327361563,2.1870117
-0.0006502062841339414,-9.121741092275297,2.1948242
-0.0007192080864348812,-9.250837426074273,2.2026367
-0.0007888016728713999,-9.380157075828018,2.2104492
-0.000858983625253752,-9.509681056825968,2.2182617
-0.0009297505879581437,-9.639410102018358,2.2260742
-0.0010010992439323972,-9.769361005804123,2.2338867
-0.001073026283484057,-9.899561390085845,2.2416992
-0.001145528338571599,-10.030043928244712,2.2495117
-0.0012186019212528407,-10.160844094786656,2.2573242
-0.0012922434353683945,-10.292002174650898,2.2651367
-0.0013664492628522912,-10.423565508601552,2.2729492
-0.0014412158629237613,-10.555586773331605,2.2807617
-0.0015165398295671827,-10.688121694533717,2.2885742
-0.001592417885528938,-10.821231774309224,2.2963867
-0.0016688468251582346,-10.954987858696379,2.3041992
-0.0017458234432602465,-11.089469561667714,2.3120117
-0.0018233444856904392,-11.224763381083795,2.3198242
-0.0019014066345425691,-11.360961101587078,2.3276367
-0.001980006512584581,-11.498157335624887,2.3354492
-0.002059140678142459,-11.636446738196424,2.3432617
-0.0021388055877701664,-11.775920802453205,2.3510742
-0.002218997535065481,-11.916663243310204,2.3588867
-0.002299712606270414,-12.058744001889032,2.3666992
-0.0023809466821193954,-12.202213643532092,2.3745117
-0.002462695482667682,-12.347099805552165,2.3823242
-0.002544954620942834,-12.493405957310653,2.3901367
-0.00262771961953139,-12.641114304819359,2.3979492
-0.0027109858810754938,-12.790194384346703,2.4057617
-0.002794748643961557,-12.940612233803888,2.4135742
-0.0028790029576285917,-13.092331786101653,2.4213867
-0.0029637436958846624,-13.245309972629757,2.4291992
-0.003048965611911359,-13.399495623893362,2.4370117
-0.0031346634184576186,-13.55483526076395,2.4448242
-0.0032208318348717945,-13.711280253291926,2.4526367
-0.003307465562181626,-13.86879046522164,2.4604492
-0.003394559255788475,-14.027334454696032,2.4682617
-0.0034821075637604705,-14.186887836703129,2.4760742
-0.0035701051513926125,-14.347428904920688,2.4838867
-0.003658546629267849,-14.508933837563616,2.4916992
-0.0037474264803031322,-14.671378298492272,2.4995117
-0.0038367391039244958,-14.83474603162519,2.5073242
-0.003926478920445693,-14.999036811149047,2.5151367
-0.004016640411434496,-15.164268968721757,2.5229492
-0.004107218074901409,-15.330476988675711,2.5307617
-0.004198206361132575,-15.497705537382098,2.5385742
-0.004289599643690074,-15.666005584346134,2.5463867
-0.0043813922270281936,-15.835435164005998,2.5541992
-0.004473578365493,-16.006056619347373,2.5620117
-0.004566152277444065,-16.177925853225222,2.5698242
-0.004659108153659155,-16.351081266086137,2.5776367
-0.0047524401662209885,-16.52554121790457,2.5854492
-0.004846142480948223,-16.701307957425502,2.5932617
-0.0049402092688221756,-16.87837125394392,2.6010742
-0.005034634713823499,-17.056712360531925,2.6088867
-0.0051294130218687796,-17.236308876894388,2.6166992
-0.005224538426408998,-17.417136187480803,2.6245117
-0.005320005172370246,-17.599164967430962,2.6323242
-0.005415807481227397,-17.782356647237634,2.6401367
-0.005511939529958763,-17.966656679372637,2.6479492
-0.005608395468109581,-18.15198806810598,2.6557617
-0.005705169461032292,-18.33825131876253,2.6635742
-0.005802255704545702,-18.52533164085979,2.6713867
-0.005899648373528217,-18.71310631828077,2.6791992
-0.005997341544453229,-18.901449004856048,2.6870117
-0.006095329132095516,-19.090234503531203,2.6948242
-0.006193604828314458,-19.27934497511268,2.7026367
-0.006292162057027579,-19.468675237734075,2.7104492
-0.006390993991975216,-19.658135775554868,2.7182617
-0.006490093631707859,-19.84765451835265,2.7260742
-0.006589453877575209,-20.037180369780643,2.7338867
-0.006689067578734636,-20.226687358482693,2.7416992
-0.006788927548568322,-20.416174503968886,2.7495117
-0.006889026585006081,-20.605662125835554,2.7573242
-0.006989357526362037,-20.79519043188865,2.7651367
-0.007089913331909788,-20.984822406348286,2.7729492
-0.0071906871333982806,-21.174647719629483,2.7807617
-0.007291672224841793,-21.364780830262536,2.7885742
-0.007392862024127485,-21.555346784554608,2.7963867
-0.007494250060888133,-21.746460728402845,2.8041992
-0.007595829995403943,-21.938216113499728,2.8120117
-0.007697595631951459,-22.130686029718166,2.8198242
-0.007799540903964958,-22.323931982966823,2.8276367
-0.007901659841978081,-22.51801612216433,2.8354492
-0.008003946562668241,-22.71301399664009,2.8432617
-0.008106395296875952,-22.909023060110982,2.8510742
-0.008209000401263922,-23.106164475632784,2.8588867
-0.008311756294956067,-23.304578439123542,2.8666992
-0.008414657351792412,-23.504413956576986,2.8745117
-0.008517697831205033,-23.70581884439327,2.8823242
-0.00862087190914563,-23.908935896988616,2.8901367
-0.00872417378469971,-24.11390225752998,2.8979492
-0.008827597743740671,-24.320846448694017,2.9057617
-0.008931138122954445,-24.52988559842943,2.9135742
-0.009034789265912568,-24.741128439221896,2.9213867
-0.00913854554204467,-24.954680087967485,2.9291992
-0.009242401382664663,-25.170638679210168,2.9370117
-0.009346351293559148,-25.389083893767413,2.9448242
-0.009450389855954443,-25.610069798539875,2.9526367
-0.00955451171211155,-25.83363117960118,2.9604492
-0.009658711523533694,-26.059797272784586,2.9682617
-0.009762983919066047,-26.28860012674914,2.9760742
-0.009867323454722212,-26.520073898465,2.9838867
-0.009971724591716333,-26.754248038815266,2.9916992
-0.0100761816990505,-26.99113572183935,2.9995117
-0.010180689085538328,-27.23072360530421,3.0073242
-0.010285241047976618,-27.472972232066212,3.0151367
-0.010389831907824821,-27.717825596523696,3.0229492
-0.010494456018390223,-27.96522275083722,3.0307617
-0.010599107752902312,-28.21511000051965,3.0385742
-0.010703781517936203,-28.46745012245386,3.0463867
