Displacement (mm),Force (N),Time (s)
-0.006489064297282462,-9.30712720488885,0.022460938
-0.006420461812901181,-9.133072314615324,0.030273438
-0.0063516761326293785,-8.95597965857472,0.038085938
-0.00628272646211422,-8.776300858844166,0.045898438
-0.006213631899560971,-8.594540959956616,0.053710938
-0.006144411452353589,-8.411246353052219,0.061523438
-0.006075084026404391,-8.22699163891963,0.069335938
-0.0060056683684219046,-8.042370096325378,0.077148438
-0.0059361829857538856,-7.857994024301294,0.084960938
-0.005866646083164319,-7.67450964920403,0.092773438
-0.005797075537487996,-7.492613111179393,0.10058594
-0.005727488884457316,-7.313043132367451,0.10839844
-0.005657903283213939,-7.136548475275353,0.11621094
-0.005588335508549115,-6.963851813455471,0.12402344
-0.005518802023518772,-6.79562588978426,0.13183594
-0.0054493190522641255,-6.6324819071195025,0.13964844
-0.005379902564879888,-6.474964677325037,0.14746094
-0.005310568207058941,-6.323550747336474,0.15527344
-0.005241331249608996,-6.178648179299649,0.16308594
-0.00517220659579365,-6.040598166224795,0.17089844
-0.005103208847117459,-5.909674450895073,0.17871094
-0.005034352391517933,-5.786077591684569,0.18652344
-0.004965651428212245,-5.669932155568055,0.19433594
-0.004897119880234226,-5.561292546187502,0.20214844
-0.00482877126754372,-5.4601534376940775,0.20996094
-0.004760618624690699,-5.366463863359894,0.21777344
-0.004692674472687183,-5.2801437004589316,0.22558594
-0.004624950838421144,-5.20109474286012,0.23339844
-0.004557459302142076,-5.129205406711852,0.24121094
-0.004490211021327063,-5.064357741645524,0.24902344
-0.004423216712033037,-5.006435966679126,0.25683594
-0.0043564866201715536,-4.955322534392503,0.26464844
-0.004290030475908934,-4.9108781092516995,0.27246094
-0.0042238573933332515,-4.872921832648198,0.28027344
-0.004157975755024442,-4.8412303279309,0.28808594
-0.004092393158848542,-4.815560978324886,0.29589844
-0.004027116441532128,-4.795683983177743,0.30371094
-0.003962151740819086,-4.781397176535989,0.31152344
-0.0038975045390425575,-4.772518748130205,0.31933594
-0.003833179643383232,-4.768872224255484,0.32714844
-0.003769181122361935,-4.770272685332955,0.33496094
-0.0037055122798751255,-4.776515887373978,0.34277344
-0.0036421757001158677,-4.787367918444249,0.35058594
-0.003579173281161982,-4.802554045878322,0.35839844
-0.0035165061964188096,-4.821751868582958,0.36621094
-0.00345417486094674,-4.844593285088947,0.37402344
-0.0033921789911918023,-4.870672076552556,0.38183594
-0.0033305177338286054,-4.899547363097935,0.38964844
-0.0032691897942523558,-4.930738750272235,0.39746094
-0.003208193533403016,-4.963725393745829,0.40527344
-0.003147527034740216,-4.997966657555209,0.41308594
-0.0030871881502723257,-5.032942757983085,0.42089844
-0.0030271745290806696,-5.068192106927162,0.42871094
-0.0029674836306101365,-5.103331154656089,0.43652344
-0.00290811272640884,-5.138060187640094,0.44433594
-0.0028490588854257785,-5.1721590288622465,0.45214844
-0.0027903189400322347,-5.20547715099032,0.45996094
-0.0027318894511038235,-5.237922928500224,0.46777344
-0.0026737666918802065,-5.269452080869762,0.47558594
-0.002615946657503965,-5.30005275478055,0.48339844
-0.002558425124648352,-5.329729154233816,0.49121094
-0.002501197776253956,-5.358492205728446,0.49902344
-0.00244426032910598,-5.386357137002675,0.50683594
-0.002387608592651534,-5.4133368709381,0.51464844
-0.0023312384741194805,-5.439431022527347,0.52246094
-0.0022751459722423375,-5.464622620882545,0.53027344
-0.002219327182785473,-5.488881689577038,0.53808594
-0.002163778350944601,-5.512163401240875,0.54589844
-0.0021084959685821873,-5.534402339641513,0.55371094
-0.0020534768539823257,-5.555513125020821,0.56152344
-0.001998718187736673,-5.575401191641794,0.56933594
-0.0019442175267850798,-5.593984736128589,0.57714844
-0.0018899727877276357,-5.611222610121695,0.58496094
-0.001835982178478898,-5.6271326315310555,0.59277344
-0.0017822441010615182,-5.641788691630979,0.60058594
-0.0017287570711208183,-5.6553043659665985,0.60839844
-0.0016755196932323538,-5.667823276402625,0.61621094
-0.0016225307022682532,-5.679521125174335,0.62402344
-0.0015697890320271754,-5.690607013819558,0.63183594
-0.001517293863838878,-5.701318809012665,0.63964844
-0.001465044646153917,-5.71191317742849,0.64746094
-0.001413041096058903,-5.722648015497804,0.65527344
-0.0013612831793554255,-5.73375952247561,0.66308594
-0.0013097710601811632,-5.745442621988333,0.67089844
-0.001258505041167401,-5.757840738794304,0.67871094
-0.0012074855335892122,-5.771043240603878,0.68652344
-0.0011567130500219694,-5.785089300715784,0.69433594
-0.0011061881712196456,-5.799977621152969,0.70214844
-0.0010559114788320082,-5.815677190151165,0.70996094
-0.001005883497481932,-5.8321352332499155,0.71777344
-0.0009561046938257323,-5.849279666668344,0.72558594
-0.0009065755411858005,-5.867015500012646,0.73339844
-0.0008572965992874311,-5.8852234429091945,0.74121094
-0.0008082685380094615,-5.903770410780235,0.74902344
-0.0007594920858735156,-5.922524837278639,0.75683594
-0.000710967969145878,-5.941360623612244,0.76464844
-0.0006626969173127295,-5.960154131178831,0.77246094
-0.0006146797222126726,-5.978796343165901,0.78027344
-0.0005669172763224894,-5.997224360195545,0.78808594
-0.0005194105410793146,-6.015445333844197,0.79589844
-0.00047216046891659,-6.033528625915724,0.80371094
-0.0004251679412976545,-6.0515779150699185,0.81152344
-0.0003784337327228829,-6.069713104211389,0.81933594
-0.00033195846943723305,-6.088068537977403,0.82714844
-0.0002857426047877741,-6.106789898146284,0.83496094
-0.00023978645682345946,-6.126020778629481,0.84277344
-0.00019409027737492287,-6.145882500266557,0.85058594
-0.00014865428727755284,-6.1664540709733195,0.85839844
-0.00010347867426779866,-6.187765253908564,0.86621094
-5.856357861499698e-05,-6.209804142769702,0.87402344
-1.3909063847681221e-05,-6.232525133117176,0.88183594
3.048491760972425e-05,-6.255855304853496,0.88964844
7.461853126380879e-05,-6.279705146948137,0.89746094
0.00011849204769859891,-6.303976405881757,0.90527344
0.00016210584907651313,-6.32856016874784,0.91308594
0.000205460456905738,-6.3533308633084715,0.92089844
0.0002485565542133245,-6.378140135407416,0.92871094
0.0002913949846598177,-6.402811872652647,0.93652344
0.0003339767201522498,-6.42714627110477,0.94433594
0.0003763028170989382,-6.450936199105743,0.95214844
0.0004183744118585545,-6.473986459124125,0.95996094
0.0004601927653942685,-6.4961263698872935,0.96777344
0.0005017593053743241,-6.517213328702409,0.97558594
0.0005430756312027559,-6.537125664275986,0.98339844
0.0005841434985222512,-6.555745087589984,0.99121094
0.0006249647894153572,-6.5729422161023034,0.99902344
0.0006655414572787101,-6.588578214048138,1.0068359
0.0007058754839481958,-6.602511460920326,1.0146484
0.0007459688832592229,-6.614593329632093,1.0224609
0.0007858237004891543,-6.624658064663138,1.0302734
0.0008254419681591191,-6.632519381083422,1.0380859
0.0008648256602474027,-6.637977883155093,1.0458984
0.0009039766769002564,-6.64083623361499,1.0537109
0.0009428968394622388,-6.640915940188177,1.0615234
0.000981587886920495,-6.638068170256389,1.0693359
0.0010200514756991206,-6.632176019992248,1.0771484
0.001058289140372275,-6.623154827356492,1.0849609
0.001096302196699106,-6.610955019737735,1.0927734
0.0011340916593224717,-6.5955637459675165,1.1005859
0.0011716582489198445,-6.577003208875609,1.1083984
0.0012090024882133895,-6.555329068226491,1.1162109
0.0012461248005170822,-6.5306308253953365,1.1240234
0.0012830255276866432,-6.503032306703979,1.1318359
0.0013197049100316023,-6.472691408739008,1.1396484
0.001356163100377543,-6.439798014318355,1.1474609
0.0013924001853371803,-6.4045643435387865,1.1552734
0.0014284161669954815,-6.367208649285265,1.1630859
0.001464210929826224,-6.327945571534634,1.1708984
0.001499784251977559,-6.28698833397625,1.1787109
0.0015351358703992665,-6.244554502734401,1.1865234
0.0015702655474995073,-6.200870233649878,1.1943359
0.0016051731061656358,-6.156171763691114,1.2021484
0.0016398584584559812,-6.110701690143105,1.2099609
0.0016743216307818411,-6.064700645307239,1.2177734
0.001708562733524724,-6.018399862553384,1.2255859
0.0017425818845662473,-5.972016174114685,1.2333984
0.001776379168757305,-5.925744210605077,1.2412109
0.0018099546441773132,-5.8797469710926915,1.2490234
0.0018433083514859112,-5.834150510960223,1.2568359
0.0018764403327135406,-5.7890450215095335,1.2646484
0.0019093506652207977,-5.744492376399288,1.2724609
0.0019420394789875887,-5.700531241299177,1.2802734
0.0019745069587781892,-5.657173032008977,1.2880859
0.0020067533609664885,-5.614396675267849,1.2958984
0.0020387790370514163,-5.572148166183575,1.3037109
0.002070584427163143,-5.530346381695234,1.3115234
0.002102170003029417,-5.488895593161034,1.3193359
0.0021335361908082573,-5.447695499280203,1.3271484
0.0021646833476725957,-5.406640941128743,1.3349609
0.0021956118071402796,-5.3656165389658925,1.3427734
0.0022263219233770036,-5.324495409546097,1.3505859
0.002256814086723533,-5.283147458077853,1.3583984
0.0022870887507541898,-5.241453631622839,1.3662109
0.0023171464885933042,-5.199314801690631,1.3740234
0.0023469880409061686,-5.156650303373615,1.3818359
0.002376614300930795,-5.113393542434788,1.3896484
0.002406026228084824,-5.0694990366049035,1.3974609
0.0024352247411048625,-5.024964516778723,1.4052734
0.002464210651936109,-4.979849941492006,1.4130859
0.002492984649438835,-4.934278573526131,1.4208984
0.00252154728155155,-4.8884269697824925,1.4287109
0.0025498989083346645,-4.842514032164421,1.4365234
0.002578039658520785,-4.796792426358761,1.4443359
0.002605969424044257,-4.751542839337544,1.4521484
0.0026336879047712805,-4.707065024789877,1.4599609
0.0026611946876540942,-4.6636615183366645,1.4677734
0.0026884893035170705,-4.621622847361971,1.4755859
0.0027155712274199617,-4.581221878216535,1.4833984
0.0027424398783198376,-4.5427119417904205,1.4912109
0.0027690946736515024,-4.506320612142351,1.4990234
0.0027955350838985713,-4.472239293045003,1.5068359
0.0028217606167853823,-4.440616399862332,1.5146484
0.0028477707569356525,-4.411558537286936,1.5224609
0.0028735649098663605,-4.385133606000497,1.5302734
0.0028991423681410324,-4.361370357653911,1.5380859
0.00292450231797733,-4.340258384681951,1.5458984
0.002949643874791956,-4.321753455147198,1.5537109
0.0029745660989405507,-4.305787642024448,1.5615234
0.0029992679854877633,-4.292281234172897,1.5693359
0.0030237484635683566,-4.281154199828984,1.5771484
0.003048006396410664,-4.272335318148204,1.5849609
0.003072040546118737,-4.26576467593437,1.5927734
0.0030958495277157994,-4.261387723686237,1.6005859
0.00311943180104923,-4.25914632635519,1.6083984
0.003142785683935339,-4.258971020271495,1.6162109
0.0031659093527313525,-4.26077487918394,1.6240234
0.0031888008459544284,-4.264451096575499,1.6318359
0.0032114580769245465,-4.269874468513278,1.6396484
0.003233878830829592,-4.276905419678526,1.6474609
0.0032560607601863955,-4.285399329376329,1.6552734
0.0032780014140793862,-4.295218881508296,1.6630859
0.0032996982928156014,-4.306238041990688,1.6708984
0.0033211489053342107,-4.318334724360005,1.6787109
0.0033423508104393194,-4.331384490198551,1.6865234
0.0033633015944616418,-4.3452646993141375,1.6943359
0.0033839987885675073,-4.35986147608766,1.7021484
0.003404439829404649,-4.375068085714112,1.7099609
0.0034246221127332303,-4.390781253190178,1.7177734
0.003444543051555449,-4.406911537606,1.7255859
0.0034642000481365613,-4.423399964516903,1.7333984
0.003483590412422823,-4.440214880005559,1.7412109
0.0035027113338823223,-4.457330504471923,1.7490234
0.0035215599445387403,-4.474713279638193,1.7568359
0.003540133402567024,-4.492327228882022,1.7646484
0.003558428920880837,-4.51015007879963,1.7724609
0.0035764437396454906,-4.528188537928074,1.7802734
0.0035941750878288,-4.5464868000935805,1.7880859
0.0036116201654890294,-4.565127221055175,1.7958984
0.0036287761483034604,-4.584225406411169,1.8037109
0.0036456401987548072,-4.60392694648751,1.8115234
0.0036622094706758993,-4.624408376892391,1.8193359
0.0036784811157386252,-4.6458757085634454,1.8271484
0.0036944523048207064,-4.6685590659828,1.8349609
0.0037101202514977743,-4.692708120753925,1.8427734
0.003725482226030805,-4.718588613928406,1.8505859
0.0037405355643534825,-4.746478625360953,1.8583984
0.003755277648727932,-4.776663740843001,1.8662109
0.003769705842579414,-4.809430790925304,1.8740234
0.00378381745019063,-4.845066984066931,1.8818359
0.0037976097745339127,-4.883869090666243,1.8896484
0.0038110802183596616,-4.926152240831514,1.8974609
0.003824226321109329,-4.97224860444222,1.9052734
0.003837045703849128,-5.022498842811996,1.9130859
0.0038495359961712005,-5.077243745711611,1.9208984
0.003861694850848318,-5.136819559055595,1.9287109
0.0038735200491389014,-5.201551936830119,1.9365234
0.003885009587592299,-5.271743218276971,1.9443359
0.003896161663047186,-5.347656828390962,1.9521484
0.0039069745901692725,-5.429508941484176,1.9599609
0.003917446772645756,-5.517473663981559,1.9677734
0.003927576763501116,-5.611696654333773,1.9755859
0.003937363314617191,-5.712307900751612,1.9833984
0.003946805354048721,-5.819425936193934,1.9912109
0.003955901921801845,-5.933150626402514,1.9990234
0.00396465211401622,-6.053554988211171,2.0068359
0.003973055071182254,-6.180686413742811,2.0146484
0.003981110009916362,-6.3145685386093025,2.0224609
0.003988816248124081,-6.455194996246365,2.0302734
0.003996173162919533,-6.602522941490565,2.0380859
0.00400318010325463,-6.756472573182965,2.0458984
0.004009836336148178,-6.9169333788501675,2.0537109
0.0040161410336662425,-7.083775809036405,2.0615234
0.004022093270955834,-7.2568620148549705,2.0693359
0.0040276920559958835,-7.436057851454949,2.0771484
0.004032936393477292,-7.62124805794676,2.0849609
0.00403782533790611,-7.812344464553683,2.0927734
0.004042358036189003,-8.009283948636547,2.1005859
0.004046533793810453,-8.212020276177107,2.1083984
0.004050352133042097,-8.42051434152546,2.1162109
0.00405381277264133,-8.634728082433675,2.1240234
0.004056915526368216,-8.854622000474047,2.1318359
0.004059660208458434,-9.08015604192038,2.1396484
0.004062046636122309,-9.311297172357241,2.1474609
0.004064074703269851,-9.548030402286326,2.1552734
0.004065744427979396,-9.790362861087944,2.1630859
0.004067055952839893,-10.038318310809355,2.1708984
0.004068009533670929,-10.291931014121403,2.1787109
0.00406860551824564,-10.551246076538549,2.1865234
0.004068844294572556,-10.816326371785223,2.1943359
0.004068726194936884,-11.087260247800046,2.2021484
0.004068251355672376,-11.364162935030498,2.2099609
0.0040674195912324155,-11.647172915922301,2.2177734
0.004066230399925646,-11.936448486964963,2.2255859
0.004064683107564949,-12.232167133616162,2.2333984
0.00406277699905984,-12.53452861063874,2.2412109
0.004060511358276551,-12.843757298739886,2.2490234
0.004057885475031353,-13.16010127245531,2.2568359
0.004054898676903318,-13.483829173840357,2.2646484
0.004051550375593581,-13.815216196114113,2.2724609
0.004047840080546384,-14.154515840037229,2.2802734
0.004043767373461886,-14.50193430925755,2.2880859
0.004039331894325236,-14.857617853496222,2.2958984
0.004034533363149428,-15.221641923021888,2.3037109
0.004029371608212517,-15.593995071647951,2.3115234
0.0040238465828591535,-15.974565860942223,2.3193359
0.004017958374733675,-16.36313506918865,2.3271484
0.004011707193175889,-16.759368160813523,2.3349609
0.004005093336673599,-17.1628122269877,2.3427734
0.003998117186409617,-17.572905193892172,2.3505859
0.003990779254689935,-17.988993100769793,2.3583984
0.003983080263000269,-18.410340057593366,2.3662109
0.003975021188803396,-18.83612736061328,2.3740234
0.003966603235171625,-19.26546021961429,2.3818359
0.003957827742607467,-19.697397759915876,2.3896484
0.00394869609804085,-20.131006479669015,2.3974609
0.003939209684685381,-20.56542429991495,2.4052734
0.003929369891406397,-20.999908973901555,2.4130859
0.003919178165110129,-21.433853105119955,2.4208984
0.003908636072207979,-21.866771566539818,2.4287109
0.0038977453383069187,-22.298273978615086,2.4365234
0.0038865078476081833,-22.728034437661407,2.4443359
0.003874925621573223,-23.155774395526475,2.4521484
0.0038630008230122674,-23.58127069633058,2.4599609
0.0038507358070654354,-24.004383427563276,2.4677734
0.0038381332023582023,-24.425069362517764,2.4755859
0.0038251959787555328,-24.843352503188125,2.4833984
0.0038119274564223345,-25.259280496283058,2.4912109
0.0037983312425867726,-25.672909145714343,2.4990234
0.003784411118745481,-26.084309152779653,2.5068359
0.0037701709419627207,-26.49357207074809,2.5146484
0.003755614619427184,-26.900811715292825,2.5224609
0.0037407461365666288,-27.306168953096105,2.5302734
0.003725569573185849,-27.709823418568277,2.5380859
0.0037100890658339756,-28.111997598754698,2.5458984
0.003694308733332172,-28.51293811847516,2.5537109
0.0036782326301630637,-28.912880997584363,2.5615234
0.0036618647623669854,-29.312017273100338,2.5693359
0.0036452091373753975,-29.710474716518906,2.5771484
0.0036282698002271497,-30.108326631537665,2.5849609
0.003611050838157172,-30.505618956775844,2.5927734
0.003593556377406225,-30.9023831028585,2.6005859
0.00357579059982723,-31.29861120275754,2.6083984
0.0035577577704741033,-31.69421475821574,2.6162109
0.003539462240890213,-32.089009967010874,2.6240234
0.003520908424426474,-32.48274374056642,2.6318359
0.003502100782689914,-32.87512814814061,2.6396484
0.0034830438330404794,-33.26584841506709,2.6474609
0.003463742153587669,-33.654560179703495,2.6552734
0.0034442003895420866,-34.04091551549578,2.6630859
0.003424423267049837,-34.42461443583576,2.6708984
0.0034044155828325887,-34.80544307606379,2.6787109
0.003384182151877354,-35.18327944842008,2.6865234
0.0033637277363420663,-35.558079921450826,2.6943359
0.0033430569587618165,-35.92987780698746,2.7021484
0.003322174188538777,-36.29882031290481,2.7099609
0.0033010834475783266,-36.6652183444829,2.7177734
0.0032797883957582773,-37.02954615298762,2.7255859
0.00325829239173541,-37.39238324094833,2.7333984
0.003236598568052342,-37.754362893382485,2.7412109
0.003214709857204072,-38.116160846660215,2.7490234
0.003192628967473168,-38.47848124933093,2.7568359
0.003170358353835523,-38.84201076536258,2.7646484
0.003147900194202373,-39.20737653416018,2.7724609
0.0031252563596118267,-39.57513647683512,2.7802734
0.0031024283929638246,-39.9457854552613,2.7880859
0.0030794175039230783,-40.31976704620202,2.7958984
0.0030562245655495622,-40.69749994403408,2.8037109
0.003032850116799329,-41.07940881841319,2.8115234
0.003009294383038921,-41.46593959992209,2.8193359
0.00298555729341985,-41.85756666905351,2.8271484
0.002961638467159166,-42.25481325909133,2.8349609
0.0029375371825418684,-42.65827794116719,2.8427734
0.0029132523825337424,-43.068633721902096,2.8505859
0.0028887827519557705,-43.48659718741674,2.8583984
0.0028641268132453194,-43.91290250841814,2.8662109
0.002839282955351111,-44.3482873988576,2.8740234
0.00281424939644853,-44.793473784918795,2.8818359
0.0027890241576042775,-45.24914502615527,2.8896484
0.002763605104513772,-45.71592157186403,2.8974609
0.002737990022652049,-46.194325504156964,2.9052734
0.0027121766464342388,-46.684743115315314,2.9130859
0.002686162634381086,-47.18740878571828,2.9208984
0.0026599455574055227,-47.70240378565114,2.9287109
0.0026335229613595515,-48.22964700572371,2.9365234
0.0026068924826941403,-48.76889209325325,2.9443359
0.002580051931589825,-49.31975868341208,2.9521484
0.002552999299881887,-49.88178133504771,2.9599609
0.002525732715132556,-50.454438631424566,2.9677734
0.002498250387328142,-51.037154949440186,2.9755859
0.0024705505950998927,-51.62930196995831,2.9833984
0.0024426317286707425,-52.23024048761074,2.9912109
0.0024144923705679577,-52.839413233111614,2.9990234
0.0023861313687750063,-53.4564387017425,3.0068359
0.00235754787567889,-54.081148156662394,3.0146484
0.002328741377786592,-54.71356623378081,3.0224609
0.0022997117440171633,-55.35387342174865,3.0302734
0.002270459287984588,-56.002379351830186,3.0380859
0.002240984818112282,-56.65951433306546,3.0458984
0.0022112896465368917,-57.325820770874344,3.0537109
