Displacement (mm),Force (N),Time (s)
-0.0023011697323170282,-7.452710635491887,0.021484375
-0.002298751650446236,-7.443820530396083,0.029296875
-0.0022961488496415134,-7.434865295166843,0.037109375
-0.0022933609293703558,-7.425918996796223,0.044921875
-0.0022903877332954153,-7.417046920724383,0.052734375
-0.0022872293215145784,-7.408298746617761,0.060546875
-0.0022838860024737727,-7.399702246079732,0.068359375
-0.0022803583828930776,-7.391261759767966,0.076171875
-0.002276647359146426,-7.382960225374733,0.083984375
-0.0022727540563515867,-7.374762200717019,0.091796875
-0.0022686798080367556,-7.366618784265691,0.099609375
-0.0022644261907297614,-7.3584739582469645,0.10742188
-0.002259995034542752,-7.3502697803899295,0.11523438
-0.00225538840625035,-7.341949043387755,0.12304688
-0.0022506086271235747,-7.333455572773284,0.13085938
-0.002245658320502532,-7.324733850478891,0.13867188
-0.0022405404183545538,-7.315728027860874,0.14648438
-0.002235258108481015,-7.306379097105446,0.15429688
-0.002229814790565091,-7.296621991202701,0.16210938
-0.0022242140787486256,-7.286384231653001,0.16992188
-0.002218459802084842,-7.27558602961688,0.17773438
-0.002212555964112692,-7.26414281911794,0.18554688
-0.0022065066924776477,-7.2519704730446435,0.19335938
-0.0022003162000719285,-7.2389929235109225,0.20117188
-0.0021939887280249233,-7.225152646247689,0.20898438
-0.002187528484092371,-7.210420106028643,0.21679688
-0.0021809396382377402,-7.194794146205768,0.22460938
-0.002174226380536268,-7.178293056371131,0.23242188
-0.002167392999160187,-7.160945578031235,0.24023438
-0.0021604439523960793,-7.142786973768301,0.24804688
-0.00215338391367017,-7.123859097557297,0.25585938
-0.0021462177572852486,-7.104214754338851,0.26367188
-0.0021389505001204886,-7.083924284383676,0.27148438
-0.0021315872776302854,-7.063076993341055,0.27929688
-0.002124133367038674,-7.041773316212497,0.28710938
-0.002116594178148698,-7.0201133140906755,0.29492188
-0.0021089751705869885,-6.998190337349467,0.30273438
-0.0021012817337697264,-6.976093745868913,0.31054688
-0.002093519097626071,-6.953917210448402,0.31835938
-0.0020856923226595142,-6.9317649764396165,0.32617188
-0.0020778063626808586,-6.909755692319156,0.33398438
-0.0020698661508052755,-6.888026329772477,0.34179688
-0.0020618766461569307,-6.866729626347909,0.34960938
-0.0020538428172292714,-6.846021905587017,0.35742188
-0.0020457696039270752,-6.82605050733424,0.36523438
-0.0020376619095712986,-6.806948065972303,0.37304688
-0.0020295246222414346,-6.788831261268516,0.38085938
-0.002021362622286147,-6.771799085225138,0.38867188
-0.002013180757888116,-6.755928119716566,0.39648438
-0.00200498383979518,-6.74126899152411,0.40429688
-0.001996776719061646,-6.727850190155649,0.41210938
-0.0019885644234485856,-6.715685110324351,0.41992188
-0.0019803522371198423,-6.704774898762552,0.42773438
-0.0019721456511471885,-6.6951090388660575,0.43554688
-0.0019639502392009077,-6.686668714502554,0.44335938
-0.00195577155284164,-6.679430149258147,0.45117188
-0.0019476150781295488,-6.67336410704495,0.45898438
-0.001939486242296228,-6.6684367485804925,0.46679688
-0.0019313904385055783,-6.6646136890466705,0.47460938
-0.001923333046895198,-6.661861521371541,0.48242188
-0.0019153194467510823,-6.660147283725442,0.49023438
-0.001907355012723784,-6.659438264188691,0.49804688
-0.0018994450747626642,-6.659700015505373,0.50585938
-0.0018915948335454138,-6.660892853501948,0.51367188
-0.0018838092581065337,-6.662968104368841,0.52148438
-0.0018760930158672313,-6.665864052888719,0.52929688
-0.0018684504839780141,-6.669504952547661,0.53710938
-0.0018608858263212706,-6.673804773379766,0.54492188
-0.001853403049499047,-6.678668295927947,0.55273438
-0.00184600599011907,-6.6839860608472765,0.56054688
-0.0018386982690239923,-6.689631713684383,0.56835938
-0.0018314832745891377,-6.695465924335713,0.57617188
-0.0018243642051066658,-6.701342059039534,0.58398438
-0.0018173441437970617,-6.707111052737874,0.59179688
-0.0018104261119231697,-6.712626200902572,0.59960938
-0.0018036130604931213,-6.71774914660165,0.60742188
-0.001796907817244405,-6.722358422685584,0.61523438
-0.001790313066314486,-6.726356940897263,0.62304688
-0.001783831419233401,-6.729671663960665,0.63085938
-0.00177746553154816,-6.732246743771486,0.63867188
-0.0017712181481843044,-6.734037703272439,0.64648438
-0.0017650920522928066,-6.735008417583007,0.65429688
-0.001759090018375252,-6.735129159947946,0.66210938
-0.001753214805564082,-6.734376903012333,0.66992188
-0.001747469124426413,-6.732735949452386,0.67773438
-0.0017418555850425067,-6.730195840331579,0.68554688
-0.0017363767029409235,-6.726750963028433,0.69335938
-0.0017310349433115825,-6.722406002127713,0.70117188
-0.0017258327235752397,-6.7171807766107765,0.70898438
-0.0017207723817330633,-6.71110705346539,0.71679688
-0.0017158561570410503,-6.704222318572379,0.72460938
-0.0017110861694387028,-6.696568531975718,0.73242188
-0.0017064643876222114,-6.688193955928049,0.74023438
-0.0017019926272715243,-6.679152201028597,0.74804688
-0.0016976726005197165,-6.669496867614331,0.75585938
-0.0016935059812821006,-6.659274444296459,0.76367188
-0.0016894944468979398,-6.648519958528035,0.77148438
-0.0016856396962959422,-6.637258681514086,0.77929688
-0.0016819434691917772,-6.625512972725292,0.78710938
-0.0016784075804974652,-6.613309240946536,0.79492188
-0.0016750339587582497,-6.600681112309973,0.80273438
-0.0016718246433206302,-6.587668908433634,0.81054688
-0.0016687817179628353,-6.574317738187234,0.81835938
-0.0016659072757424247,-6.560675867830213,0.82617188
-0.0016632034960290076,-6.546793850254648,0.83398438
-0.0016606727444497982,-6.532725742068301,0.84179688
-0.0016583175999934205,-6.51853275301565,0.84960938
-0.0016561408268370667,-6.504285012359238,0.85742188
-0.0016541453243850443,-6.490055971187962,0.86523438
-0.0016523340758313268,-6.4759122319501525,0.87304688
-0.0016507101216572887,-6.4619080008150265,0.88085938
-0.0016492765664095444,-6.448086677489711,0.88867188
-0.0016480366074622262,-6.434483683817869,0.89648438
-0.0016469935769387737,-6.42112618012212,0.90429688
-0.0016461509948422193,-6.408031082980636,0.91210938
-0.001645512623988547,-6.3952037602117064,0.91992188
-0.0016450825033219568,-6.382637599448153,0.92773438
-0.0016448649501313668,-6.370315713104914,0.93554688
-0.001644864550954974,-6.358216989554376,0.94335938
-0.0016450861569670162,-6.346323468768534,0.95117188
-0.0016455348718371553,-6.334622255061396,0.95898438
-0.0016462160097997912,-6.323099895490015,0.96679688
-0.001647135029009025,-6.311736777428557,0.97460938
-0.0016482974661745846,-6.30051129411265,0.98242188
-0.0016497088721706323,-6.289409283137256,0.99023438
-0.001651374755276715,-6.278426671861767,0.99804688
-0.0016533005839456225,-6.267566867568268,1.0058594
-0.0016554918423844602,-6.25684009027779,1.0136719
-0.0016579540529715396,-6.246262491848766,1.0214844
-0.0016606927516259987,-6.235853895960293,1.0292969
-0.0016637134592541148,-6.225638078744175,1.0371094
-0.0016670216396573502,-6.215643117242494,1.0449219
-0.0016706226734028425,-6.205897331446833,1.0527344
-0.0016745219262044035,-6.196424047936723,1.0605469
-0.001678724857693814,-6.1872398590564,1.0683594
-0.0016832370496115256,-6.178355332002642,1.0761719
-0.0016880641667474919,-6.169776107329472,1.0839844
-0.0016932119201118027,-6.161504907166847,1.0917969
-0.0016986860270866192,-6.15354323274854,1.0996094
-0.0017044921501537082,-6.145891458084415,1.1074219
-0.0017106358468441348,-6.138549127136762,1.1152344
-0.0017171225661554012,-6.131514908340167,1.1230469
-0.001723957682690875,-6.124784024614871,1.1308594
-0.0017311465427982686,-6.118346487858746,1.1386719
-0.0017386944935466379,-6.112189797031891,1.1464844
-0.0017466068492091164,-6.1063023484776355,1.1542969
-0.0017548888031039844,-6.100673624273864,1.1621094
-0.0017635453691693963,-6.095292913295835,1.1699219
-0.0017725813753709946,-6.090148130587383,1.1777344
-0.0017820014577207973,-6.085226045476417,1.1855469
-0.0017918100757256387,-6.080516038017424,1.1933594
-0.0018020116012336066,-6.076014252128047,1.2011719
-0.0018126104364415041,-6.071724339690057,1.2089844
-0.0018236110810270435,-6.067655708350232,1.2167969
-0.0018350181309534006,-6.0638213290343534,1.2246094
-0.0018468362210255357,-6.060238365052361,1.2324219
-0.0018590699267051639,-6.056930544372893,1.2402344
-0.0018717236782871845,-6.053925938318692,1.2480469
-0.0018848017351040971,-6.051252183826128,1.2558594
-0.0018983082028090886,-6.0489361670014485,1.2636719
-0.0019122470580624604,-6.047007869999477,1.2714844
-0.001926622171545973,-6.045505990255071,1.2792969
-0.0019414373246227981,-6.044484285492487,1.2871094
-0.0019566962030689605,-6.04401398304551,1.2949219
-0.0019724023645099034,-6.044177929967828,1.3027344
-0.001988559204279368,-6.045060699599261,1.3105469
-0.0020051699393114075,-6.046742907749173,1.3183594
-0.002022237606719078,-6.049301172060257,1.3261719
-0.002039765073048278,-6.052808064749204,1.3339844
-0.0020577550527665278,-6.05732824287313,1.3417969
-0.0020762101257212244,-6.062914702333647,1.3496094
-0.0020951327434911952,-6.069609649953119,1.3574219
-0.002114525223170414,-6.077446249753316,1.3652344
-0.0021343897294498443,-6.086445608795139,1.3730469
-0.0021547282423734337,-6.096608934487725,1.3808594
-0.0021755425225437794,-6.10791058954717,1.3886719
-0.002196834125196449,-6.120299361731471,1.3964844
-0.0022186044889106415,-6.133705721480155,1.4042969
-0.00224085501063814,-6.148046252196902,1.4121094
-0.0022635870228328663,-6.163224902998448,1.4199219
-0.0022868017339687605,-6.17913674122228,1.4277344
-0.002310500196453209,-6.19567719321029,1.4355469
-0.00233468327853286,-6.212755101992988,1.4433594
-0.002359351661054236,-6.230301864189661,1.4511719
-0.0023845058971793762,-6.2482711658746455,1.4589844
-0.0024101464757936026,-6.26663410003913,1.4667969
-0.002436273791072431,-6.2853745453152055,1.4746094
-0.002462888021739916,-6.3044847737253855,1.4824219
-0.0024899890388228522,-6.323961377811337,1.4902344
-0.0025175764181149195,-6.343801664566648,1.4980469
-0.002545649518505425,-6.364002792452767,1.5058594
-0.0025742075698779766,-6.384564950727249,1.5136719
-0.002603249750223252,-6.405496377724465,1.5214844
-0.002632775225214425,-6.426817305604664,1.5292969
-0.002662783120247298,-6.448556333286483,1.5371094
-0.0026932724780605916,-6.470739396843653,1.5449219
-0.0027242422823683323,-6.493383839714191,1.5527344
-0.002755691509001061,-6.51650159499153,1.5605469
-0.002787619127968098,-6.540102052809093,1.5683594
-0.002820024071654497,-6.5641898036865145,1.5761719
-0.002852905225718271,-6.588761068554857,1.5839844
-0.002886261453538048,-6.6138009253810885,1.5917969
-0.0029200916093433875,-6.639282955701836,1.5996094
-0.0029543945164939257,-6.665174891516443,1.6074219
-0.0029891689622134226,-6.691444717330625,1.6152344
-0.0030244137514303738,-6.718061235336856,1.6230469
-0.003060127754104642,-6.744995143250909,1.6308594
-0.003096309855574757,-6.772224217598919,1.6386719
-0.003132958858068035,-6.799739668233692,1.6464844
-0.0031700734395064562,-6.827549855831602,1.6542969
-0.00320765216182286,-6.855678033066759,1.6621094
-0.0032456934794870052,-6.884156580718465,1.6699219
-0.003284195754270945,-6.913023085387017,1.6777344
-0.003323157289621295,-6.942319412950112,1.6855469
-0.0033625763677612905,-6.972088641249396,1.6933594
-0.003402451261213392,-7.0023680687714975,1.7011719
-0.0034427802147773746,-7.033185509116016,1.7089844
-0.003483561420812461,-7.064559882562878,1.7167969
-0.0035247930093066197,-7.096503136539731,1.7246094
-0.0035664730562247693,-7.129025097737332,1.7324219
-0.0036085995963981697,-7.162135327754564,1.7402344
-0.0036511706287412227,-7.1958361427177735,1.7480469
-0.003694184119170886,-7.2301135292241785,1.7558594
-0.0037376380196434754,-7.264933953196409,1.7636719
-0.00378153031579916,-7.300248301080846,1.7714844
-0.003825859094963856,-7.33599731581413,1.7792969
-0.003870622599144327,-7.372113592520472,1.7871094
-0.00391581921203901,-7.408523827338562,1.7949219
-0.003961447385710452,-7.445154926568214,1.8027344
-0.004007505578045982,-7.481941359099162,1.8105469
-0.004053992213110579,-7.518830878556797,1.8183594
-0.004100905614143211,-7.555790060147809,1.8261719
-0.00414824391618018,-7.59281092038296,1.8339844
-0.004196005019017505,-7.629914364933425,1.8417969
-0.004244186618585387,-7.667147961123784,1.8496094
-0.0042927862940595985,-7.704579918380544,1.8574219
-0.004341801578948137,-7.742291756016957,1.8652344
-0.004391229978092994,-7.780374628032749,1.8730469
-0.0044410689680923175,-7.818930338532329,1.8808594
-0.004491316017047001,-7.858072685407567,1.8886719
-0.004541968612178463,-7.897928414354796,1.8964844
-0.004593024283169349,-7.938636312733922,1.9042969
-0.0046444806304266695,-7.980340130739184,1.9121094
-0.004696335363770846,-8.023180165958026,1.9199219
-0.004748586337922379,-8.067292069142923,1.9277344
-0.004801231555957527,-8.112807486949505,1.9355469
-0.004854269124929467,-8.15984987849543,1.9433594
-0.004907697182690826,-8.208533260893578,1.9511719
-0.0049615138263590375,-8.258966899328684,1.9589844
-0.005015717064145384,-8.311257522223785,1.9667969
-0.005070304802279037,-8.365507397985757,1.9746094
-0.005125274857633109,-8.42181272164177,1.9824219
-0.005180624972447508,-8.480263457633095,1.9902344
-0.0052363528247621844,-8.540944518682956,1.9980469
-0.005292456051282082,-8.603938679474023,2.0058594
-0.005348932285901495,-8.669332359097437,2.0136719
-0.005405779189735223,-8.737221200745527,2.0214844
-0.005462994451993933,-8.807708373822065,2.0292969
-0.005520575759233944,-8.880899305100662,2.0371094
-0.005578520750378816,-8.956902322065659,2.0449219
-0.005636826988000895,-9.035834522155636,2.0527344
-0.005695491957638056,-9.117825932069056,2.0605469
-0.005754513084548216,-9.203017311794481,2.0683594
-0.00581388776075119,-9.291552647681373,2.0761719
-0.005873613372339202,-9.383571749866158,2.0839844
-0.005933687287040683,-9.47920917078127,2.0917969
-0.005994106768145265,-9.57859877607637,2.0996094
-0.006054868861932665,-9.681875379883328,2.1074219
-0.0061159703461221605,-9.789169089060856,2.1152344
-0.006177407767348952,-9.900596239148966,2.1230469
-0.006239177543407265,-10.016255651729878,2.1308594
-0.006301276069639432,-10.136234613408057,2.1386719
-0.006363699735817681,-10.260616657170388,2.1464844
-0.006426444854521143,-10.38948305252747,2.1542969
-0.006489507624118068,-10.522910117282805,2.1621094
-0.006552884180959629,-10.660964904875284,2.1699219
-0.006616570677288628,-10.803699541809042,2.1777344
-0.006680563325778303,-10.951148210148869,2.1855469
-0.006744858398997287,-11.103327481621102,2.1933594
-0.0068094522095497635,-11.260237055751618,2.2011719
-0.006874341121833235,-11.421862678359082,2.2089844
-0.0069395216062217505,-11.58818212912433,2.2167969
-0.007004990267886018,-11.759168723606187,2.2246094
-0.007070743794817946,-11.934789254132369,2.2324219
-0.007136778858543584,-12.115000661197035,2.2402344
-0.007203092031027016,-12.299748229454854,2.2480469
-0.0072696797522710166,-12.488965941870358,2.2558594
-0.007336538347378467,-12.6825797538733,2.2636719
-0.007403664067185732,-12.88050740937988,2.2714844
-0.007471053141447059,-13.08265079316562,2.2792969
-0.0075387018390975355,-13.288891453867839,2.2871094
-0.007606606490630182,-13.499098541358576,2.2949219
-0.007674763432376077,-13.71314151496188,2.3027344
-0.007743168906014361,-13.930895119375421,2.3105469
-0.007811818983853665,-14.152236454269234,2.3183594
-0.007880709555840009,-14.377040994612434,2.3261719
-0.007949836377679553,-14.605180980915595,2.3339844
-0.008019195158794862,-14.836527493280794,2.3417969
-0.008088781646720342,-15.07095213959524,2.3496094
-0.008158591665457212,-15.308321525639633,2.3574219
-0.00822862109983627,-15.548488204791589,2.3652344
-0.008298865882691187,-15.791289302857475,2.3730469
-0.008369322057650381,-16.03655594978947,2.3808594
-0.008439985890693433,-16.28412355920781,2.3886719
-0.00851085393115253,-16.53383243678512,2.3964844
-0.00858192296666695,-16.785521173978893,2.4042969
-0.008653189907175242,-17.03902421214019,2.4121094
-0.008724651699831791,-17.2941791230745,2.4199219
-0.008796305333927204,-17.550835633037,2.4277344
-0.008868147893613228,-17.808855882524732,2.4355469
-0.008940176593152918,-18.06810846318357,2.4433594
-0.009012388780344584,-18.328466700044086,2.4511719
-0.009084781939719394,-18.589812128138064,2.4589844
-0.009157353712114458,-18.852034510796436,2.4667969
-0.009230101905732481,-19.115025615299043,2.4746094
-0.009303024476065966,-19.378672888102596,2.4824219
-0.009376119501776322,-19.64285833135225,2.4902344
-0.009449385209311082,-19.90746207724757,2.4980469
-0.00952282001326471,-20.1723650332782,2.5058594
-0.009596422477749642,-20.437444928921067,2.5136719
-0.009670191212667751,-20.702567998833068,2.5214844
-0.009744124803152806,-20.967587152606463,2.5292969
-0.009818221806191076,-21.232356380641686,2.5371094
-0.009892480779218971,-21.496755072048828,2.5449219
-0.009966900306085305,-21.760702780622903,2.5527344
-0.010041479002826093,-22.024155132922694,2.5605469
-0.01011621549181344,-22.2870887237951,2.5683594
-0.010191108353199235,-22.549488981812544,2.5761719
-0.010266156079691778,-22.81134748417472,2.5839844
-0.010341357043777033,-23.072660071005718,2.5917969
-0.010416709469365695,-23.333418777790964,2.5996094
-0.010492211415276832,-23.593605509733802,2.6074219
-0.01056786080222821,-23.85319296418858,2.6152344
-0.010643655490935853,-24.11215031414681,2.6230469
-0.010719593364363612,-24.370449381742613,2.6308594
-0.01079567236970998,-24.62806456139802,2.6386719
-0.010871890520459698,-24.88496898733759,2.6464844
-0.010948245876413647,-25.14113583895351,2.6542969
-0.01102473651414323,-25.396547982942423,2.6621094
-0.011101360503045873,-25.651213594882936,2.6699219
-0.011178115903627729,-25.905174363384575,2.6777344
-0.011255000772548407,-26.158497032774907,2.6855469
-0.011332013139447752,-26.41125948319399,2.6933594
-0.011409150966378715,-26.663543209140677,2.7011719
-0.011486412136697911,-26.91543542431463,2.7089844
-0.011563794484179197,-27.16703867450359,2.7167969
-0.011641295822620695,-27.41847823263792,2.7246094
-0.011718913939399176,-27.669904298015517,2.7324219
-0.011796646556397271,-27.92149213690814,2.7402344
-0.01187449129637942,-28.173435273895233,2.7480469
-0.011952445695004204,-28.425934700527208,2.7558594
-0.012030507228310878,-28.679195692483436,2.7636719
-0.012108673289663767,-28.933432439538848,2.7714844
-0.012186941147376985,-29.18887239344749,2.7792969
-0.012265307956487554,-29.44575135201741,2.7871094
-0.012343770815367184,-29.7042995583981,2.7949219
-0.012422326817354315,-29.964730597669593,2.8027344
-0.012500973067240975,-30.227236761434238,2.8105469
-0.012579706663978268,-30.49198416854086,2.8183594
-0.012658524690745966,-30.759106961923358,2.8261719
-0.012737424230909651,-31.02870665035989,2.8339844
-0.012816402369204763,-31.300856160745838,2.8417969
-0.012895456175771492,-31.575604154402548,2.8496094
-0.012974582733697008,-31.852981159294412,2.8574219
-0.013053779207191706,-32.13300692315181,2.8652344
-0.013133042874505363,-32.415691620480466,2.8730469
-0.013212371101668362,-32.701029466847764,2.8808594
-0.013291761295654164,-32.9889943576383,2.8886719
-0.013371210867662261,-33.27954260724278,2.8964844
-0.013450717216851408,-33.5726179898686,2.9042969
-0.01353027773985772,-33.868155164501246,2.9121094
-0.013609889870302275,-34.1660760704113,2.9199219
-0.013689551141637118,-34.46627751804097,2.9277344
-0.013769259244321633,-34.768620208337346,2.9355469
-0.013849012030789401,-35.07292806282949,2.9433594
-0.013928807454388237,-35.37900016975591,2.9511719
-0.014008643501729274,-35.68663273763963,2.9589844
-0.01408851817316143,-35.995638509035885,2.9667969
-0.014168429482776622,-36.30585290765629,2.9746094
-0.014248375432768573,-36.617130127237644,2.9824219
-0.014328353988746611,-36.929335108227555,2.9902344
-0.014408363098496671,-37.24233922067151,2.9980469
-0.014488400702559108,-37.55603147534111,3.0058594
-0.01456846467750082,-37.87033425838815,3.0136719
