Displacement (mm),Force (N),Time (s)
-0.0008425479921966876,-5.819587745218422,0.022460938
-0.0008360628807128008,-5.772664128139549,0.030273438
-0.0008294764473692545,-5.726687638211514,0.038085938
-0.0008227895494962444,-5.681832821811592,0.045898438
-0.0008160030560841189,-5.638259202495296,0.053710938
-0.0008091178610704603,-5.596111283057796,0.061523438
-0.0008021348639466923,-5.55551873712964,0.069335938
-0.0007950549603964984,-5.516595650645221,0.077148438
-0.000787879065664719,-5.479438390893166,0.084960938
-0.0007806081471240971,-5.444124097000424,0.092773438
-0.0007732432208240194,-5.410711523613625,0.10058594
-0.0007657853159991722,-5.379242884314907,0.10839844
-0.0007582354428334162,-5.349744853442947,0.11621094
-0.0007505945605409435,-5.322228671419518,0.12402344
-0.000742863542169727,-5.296690873935555,0.13183594
-0.0007350431704210642,-5.2731152995217165,0.13964844
-0.0007271341620220169,-5.251475432885177,0.14746094
-0.0007191371670669289,-5.231736254300918,0.15527344
-0.0007110527301176625,-5.213854765973627,0.16308594
-0.0007028812656803825,-5.1977794938946715,0.17089844
-0.0006946231061063878,-5.183450750487999,0.17871094
-0.0006862786155109471,-5.17080109234901,0.18652344
-0.000677848302178337,-5.159753307757392,0.19433594
-0.0006693328876873026,-5.150216602987829,0.20214844
-0.0006607333410789813,-5.142084278353442,0.20996094
-0.0006520508873189051,-5.135234549960212,0.21777344
-0.0006432869778989576,-5.129534499657805,0.22558594
-0.0006344431963240048,-5.12484501176736,0.23339844
-0.0006255211049095695,-5.121024003974175,0.24121094
-0.0006165221197255908,-5.1179291776843225,0.24902344
-0.000607447497232417,-5.115421999015992,0.25683594
-0.0005982984133287265,-5.113371402171485,0.26464844
-0.0005890760641138506,-5.111657146115321,0.27246094
-0.0005797817362795344,-5.11017348644294,0.28027344
-0.0005704168294414039,-5.108831483591184,0.28808594
-0.0005609828529107502,-5.107558991913708,0.29589844
-0.0005514814138830606,-5.106298828123016,0.30371094
-0.0005419141834765992,-5.105007146656557,0.31152344
-0.0005322828520547409,-5.10365272169384,0.31933594
-0.0005225891097874466,-5.102213049382574,0.32714844
-0.0005128346491634953,-5.100667843921747,0.33496094
-0.0005030211648549811,-5.098995856620489,0.34277344
-0.0004931503577764908,-5.0971744263826935,0.35058594
-0.0004832239531651576,-5.095178947159034,0.35839844
-0.0004732437080726621,-5.092983013036155,0.36621094
-0.0004632114017099456,-5.090559845228873,0.37402344
-0.0004531288623932584,-5.08788511644771,0.38183594
-0.000442998043534291,-5.084939511161788,0.38964844
-0.00043282105619474337,-5.081708247918208,0.39746094
-0.00042260013194390385,-5.078178108339684,0.40527344
-0.000412337623898331,-5.074334806519961,0.41308594
-0.00040203607359581524,-5.070162161222271,0.42089844
-0.00039169825018868775,-5.065641639433446,0.42871094
-0.0003813271203623898,-5.060750056548026,0.43652344
-0.0003709257886868345,-5.055456803002395,0.44433594
-0.00036049746150838006,-5.049723285044798,0.45214844
-0.00035004544265698816,-5.043504854822461,0.45996094
-0.000339573103973523,-5.036755472736837,0.46777344
-0.00032908380323155156,-5.029433906530358,0.47558594
-0.000318580814087539,-5.021507695598777,0.48339844
-0.0003080673301590066,-5.012953359420599,0.49121094
-0.0002975465343485904,-5.003754905751678,0.49902344
-0.00028702169678641116,-4.993903875566716,0.50683594
-0.00027649626476181966,-4.9833999684019075,0.51464844
-0.00026597390744964805,-4.972247904830518,0.52246094
-0.00025545850020675706,-4.960452884535113,0.53027344
-0.00024495406397955383,-4.948020636864174,0.53808594
-0.0002344646969533357,-4.934961179551633,0.54589844
-0.00022399453765918406,-4.9212910560346765,0.55371094
-0.00021354776298685023,-4.907031995926744,0.56152344
-0.0002031285951246051,-4.89220890345813,0.56933594
-0.0001927413041435655,-4.876849506114885,0.57714844
-0.00018239020863194253,-4.860983868881582,0.58496094
-0.00017207967632734748,-4.84464297741441,0.59277344
-0.00016181412755552835,-4.8278582269485915,0.60058594
-0.00015159804808926238,-4.810663251110568,0.60839844
-0.00014143601061193886,-4.793098570322161,0.61621094
-0.00013133269161980075,-4.775216953642654,0.62402344
-0.0001212928661791359,-4.7570856657909975,0.63183594
-0.00011132136914477243,-4.73878479819037,0.63964844
-0.00010142304505044433,-4.720404020249378,0.64746094
-9.160273230714088e-05,-4.702039450111477,0.65527344
-8.186529114723743e-05,-4.683790758907864,0.66308594
-7.221563213875993e-05,-4.665758461260333,0.67089844
-6.265868881079854e-05,-4.648040796898021,0.67871094
-5.3199339344773625e-05,-4.6307297069517075,0.68652344
-4.384235458936311e-05,-4.613908082271934,0.69433594
-3.459242636280069e-05,-4.597650937337563,0.70214844
-2.5454265981472352e-05,-4.58202847198072,0.70996094
-1.6432717172264437e-05,-4.567105778607937,0.71777344
-7.5328154188121885e-06,-4.5529378601953745,0.72558594
1.2402265114732603e-06,-4.539565165857271,0.73339844
9.881087092491692e-06,-4.527014484412025,0.74121094
1.838443480204693e-05,-4.515302088816434,0.74902344
2.6745026603266447e-05,-4.504434900329902,0.75683594
3.495777420000379e-05,-4.49441160331018,0.76464844
4.3017771891076655e-05,-4.48522495883092,0.77246094
5.0920316994187315e-05,-4.476864663842501,0.78027344
5.866093328684703e-05,-4.469320918302901,0.78808594
6.623536106026718e-05,-4.462586349934021,0.79589844
7.363950060508429e-05,-4.456655189025556,0.80371094
8.086933865330225e-05,-4.451522015368723,0.81152344
8.792089722776563e-05,-4.447180723656565,0.81933594
9.479024292295713e-05,-4.443623360677206,0.82714844
0.00010147356083234031,-4.44083829632111,0.83496094
0.0001079672237428934,-4.438806961134476,0.84277344
0.0001142677563474541,-4.437502085751338,0.85058594
0.00012037168770750447,-4.436891757189464,0.85839844
0.00012627539915435352,-4.436947075421811,0.86621094
0.00013197508565822535,-4.437646338965748,0.87402344
0.00013746686166583616,-4.438973919009493,0.88183594
0.00014274688710595512,-4.440918214371561,0.88964844
0.00014781137350529258,-4.443470720241715,0.89746094
0.00015265651067672339,-4.446624753395644,0.90527344
0.00015727842927762628,-4.450373852772913,0.91308594
0.00016167324299568185,-4.454710063447498,0.92089844
0.00016583715060716178,-4.45962233937211,0.92871094
0.0001697665350030402,-4.465096575113901,0.93652344
0.0001734579742595365,-4.471116769241408,0.94433594
0.0001769081353698402,-4.477665775308897,0.95214844
0.00018011366916205856,-4.4847254792556015,0.95996094
0.00018307124633696763,-4.492276394741153,0.96777344
0.00018577768887227612,-4.500296694502344,0.97558594
0.00018823006341027245,-4.508761739521066,0.98339844
0.0001904256963457883,-4.517645653460806,0.99121094
0.0001923621406728547,-4.526924260085285,0.99902344
0.00019403712127833054,-4.536576703017292,1.0068359
0.00019544847693805185,-4.546585557237605,1.0146484
0.0001965941251834904,-4.556937033834224,1.0224609
0.00019747207157377132,-4.567620367340913,1.0302734
0.00019808044672264323,-4.578626397949514,1.0380859
0.00019841751193875446,-4.589948217702661,1.0458984
0.00019848160034317624,-4.601582935101143,1.0537109
0.0001982710429385055,-4.613531933252268,1.0615234
0.00019778414163645094,-4.625801058762402,1.0693359
0.00019701919226846685,-4.638400938661635,1.0771484
0.0001959745453018203,-4.651345524915572,1.0849609
0.00019464871040137126,-4.664649770756415,1.0927734
0.00019304046257709724,-4.678327966712211,1.1005859
0.000191148848750774,-4.692393199978637,1.1083984
0.00018897310933258072,-4.706857682335454,1.1162109
0.00018651264966689028,-4.7217323009886965,1.1240234
0.00018376705861708177,-4.7370251138434005,1.1318359
0.00018073606363923247,-4.752739718541857,1.1396484
0.00017741942680743196,-4.7688745703213336,1.1474609
0.00017381686500836038,-4.785424373567335,1.1552734
0.00016992803606010333,-4.802381035121407,1.1630859
0.00016575257898617253,-4.819731748828123,1.1708984
0.00016129017352900388,-4.837457178538241,1.1787109
0.00015654059553128226,-4.855533282547773,1.1865234
0.00015150376461245862,-4.873935846447296,1.1943359
0.00014617977321889833,-4.892644066071624,1.2021484
0.0001405688723570377,-4.911642864456526,1.2099609
0.00013467142067545126,-4.930925845781743,1.2177734
0.00012848783821991597,-4.950495417425936,1.2255859
0.00012201858016001174,-4.970357786711684,1.2333984
0.00011526410465137966,-4.990518503834998,1.2412109
0.00010822480750605196,-5.010979951855583,1.2490234
0.00010090094249883893,-5.031736382953133,1.2568359
9.329258306523657e-05,-5.052768545217838,1.2646484
8.539964552571906e-05,-5.074042417056882,1.2724609
7.722194882771952e-05,-5.095511165799581,1.2802734
6.875927910867256e-05,-5.117117704276803,1.2880859
6.001142584122757e-05,-5.13879628260856,1.2958984
5.0978170794491206e-05,-5.160472561445832,1.3037109
4.1659271747730176e-05,-5.182063175386862,1.3115234
3.205451999779047e-05,-5.203476873064613,1.3193359
2.2163846024386e-05,-5.224617907239016,1.3271484
1.1987343728543552e-05,-5.245389656932997,1.3349609
1.525182152592941e-06,-5.265696956774193,1.3427734
-9.222505827886683e-06,-5.285447953122387,1.3505859
-2.025569790554489e-05,-5.304556837720094,1.3583984
-3.157451866541231e-05,-5.322946539542169,1.3662109
-4.317924636067015e-05,-5.340548539211124,1.3740234
-5.5070298855158644e-05,-5.357299560498546,1.3818359
-6.724821062199676e-05,-5.373137791539231,1.3896484
-7.971360904764402e-05,-5.388001023649249,1.3974609
-9.24671946406304e-05,-5.401828230586491,1.4052734
-0.00010550972879249832,-5.414563515820436,1.4130859
-0.000118842030282351,-5.426156954587378,1.4208984
-0.0001324649811585731,-5.436559584200488,1.4287109
-0.00014637954405628437,-5.4457190142546965,1.4365234
-0.00016058679390663422,-5.453580654489221,1.4443359
-0.0001750879557057991,-5.460090828410003,1.4521484
-0.00018988441677082488,-5.4651991858064015,1.4599609
-0.00020497769393955088,-5.468860335716893,1.4677734
-0.00022036938437927279,-5.471033023427825,1.4755859
-0.00023606115841629321,-5.471678386979183,1.4833984
-0.00025205483486239524,-5.470760907984174,1.4912109
-0.00026835250256918773,-5.468251997098088,1.4990234
-0.00028495660121030436,-5.464132380459752,1.5068359
-0.00030186991480112403,-5.458390763624858,1.5146484
-0.0003190954825281207,-5.451022700695171,1.5224609
-0.0003366364764824254,-5.442032077787962,1.5302734
-0.0003544961312639951,-5.43143086753339,1.5380859
-0.0003726777605351193,-5.419236944078914,1.5458984
-0.0003911848068468732,-5.405472805385628,1.5537109
-0.0004100208597836995,-5.39016446722886,1.5615234
-0.00042918964280730214,-5.373341821072356,1.5693359
-0.00044869500622055997,-5.355041420936141,1.5771484
-0.00046854093204505825,-5.335308413841208,1.5849609
-0.0004887315434344239,-5.31419735202074,1.5927734
-0.0005092711377476351,-5.291773890856653,1.6005859
-0.0005301642459658682,-5.268115820430957,1.6083984
-0.0005514156746556216,-5.243312139198118,1.6162109
-0.0005730304692306382,-5.217461688878968,1.6240234
-0.000595013778880356,-5.1906717253186665,1.6318359
-0.0006173707175010762,-5.163055600217402,1.6396484
-0.0006401063430452661,-5.134731227928586,1.6474609
-0.0006632257429291674,-5.105822126041227,1.6552734
-0.0006867341147238303,-5.0764583239576,1.6630859
-0.0007106367594975683,-5.046772539508621,1.6708984
-0.000734939001602322,-5.016891543504441,1.6787109
-0.0007596461173539627,-4.986928434228602,1.6865234
-0.0007847633223154744,-4.956981134888732,1.6943359
-0.0008102958079852827,-4.927135885772573,1.7021484
-0.000836248787516453,-4.8974704764006916,1.7099609
-0.0008626275094608979,-4.868055695508468,1.7177734
-0.0008894372372206951,-4.838956984353909,1.7255859
-0.0009166832176134624,-4.810236706486256,1.7333984
-0.0009443706559529456,-4.781955670955457,1.7412109
-0.0009725047148887603,-4.754172898686039,1.7490234
-0.0010010905602143214,-4.726944627558167,1.7568359
-0.001030133440414421,-4.700323791785802,1.7646484
-0.0010596387304985342,-4.674359522368294,1.7724609
-0.0010896118911350777,-4.649096365303232,1.7802734
-0.0011200583758014283,-4.624573758180783,1.7880859
-0.0011509835807744031,-4.600826325096299,1.7958984
-0.001182392908644813,-4.577885770358182,1.8037109
-0.0012142919026602948,-4.5557842710998155,1.8115234
-0.0012466863384645846,-4.534557782914923,1.8193359
-0.0012795821943015538,-4.514247473209414,1.8271484
-0.0013129855312436266,-4.49489803922357,1.8349609
-0.0013469024090144446,-4.476554520410613,1.8427734
-0.001381338890351221,-4.459260885768778,1.8505859
-0.0014163010606148732,-4.44306047378596,1.8583984
-0.0014517949947177612,-4.42799651565225,1.8662109
-0.0014878266706695772,-4.414112510063904,1.8740234
-0.0015244018701829653,-4.401452752018413,1.8818359
-0.0015615261242142842,-4.390062530905462,1.8896484
-0.0015992047583388844,-4.379987466263823,1.8974609
-0.0016374430241750057,-4.37127233020694,1.9052734
-0.0016762462107518944,-4.363960403801101,1.9130859
-0.0017156196564137932,-4.358093701891952,1.9208984
-0.0017555686763334316,-4.353713442648263,1.9287109
-0.001796098466347888,-4.350860067089557,1.9365234
-0.0018372140448196525,-4.349573415831712,1.9443359
-0.0018789202615480394,-4.349893999665976,1.9521484
-0.0019212218531437263,-4.35186341041808,1.9599609
-0.0019641234748901206,-4.355522704033024,1.9677734
-0.0020076296613186677,-4.360910280677534,1.9755859
-0.0020517447658938413,-4.368058812157941,1.9833984
-0.002096472934108878,-4.376991371982964,1.9912109
-0.0021418180883429477,-4.3877189641650505,1.9990234
-0.0021877839082352834,-4.400240222370989,2.0068359
-0.002234373818677389,-4.41454448414252,2.0146484
-0.002281590965434759,-4.430617461887765,2.0224609
-0.002329438167585998,-4.448445311571573,2.0302734
-0.0023779179018963543,-4.468016431188547,2.0380859
-0.002427032354550038,-4.489322951823977,2.0458984
-0.002476783492324076,-4.512361520908411,2.0537109
-0.002527173098209259,-4.537132345445633,2.0615234
-0.0025782027652393484,-4.563637103251429,2.0693359
-0.0026298738805304663,-4.59187618550587,2.0771484
-0.002682187636101028,-4.621845516786771,2.0849609
-0.00273514506298177,-4.653535085738012,2.0927734
-0.0027887470526736864,-4.68693048391661,2.1005859
-0.002842994338001853,-4.722015478018527,2.1083984
-0.0028978874432187447,-4.758774336942471,2.1162109
-0.00295342663872313,-4.797195258259701,2.1240234
-0.003009611903680633,-4.8372736886927274,2.1318359
-0.003066442881589401,-4.879013497331329,2.1396484
-0.0031239188573501703,-4.922427757511378,2.1474609
-0.0031820388003722133,-4.967538707634663,2.1552734
-0.0032408014755724553,-5.014374036339797,2.1630859
-0.0033002055758501667,-5.062961534998842,2.1708984
-0.0033602498041376736,-5.113326383028891,2.1787109
-0.0034209328690118506,-5.165490940163945,2.1865234
-0.003482253429237316,-5.219475361688531,2.1943359
-0.003544210022071371,-5.275299520980632,2.2021484
-0.00360680097149626,-5.332985096345595,2.2099609
-0.0036700242999590954,-5.392554549585997,2.2177734
-0.0037338776972608992,-5.454026653391716,2.2255859
-0.003798358567491499,-5.51741184207316,2.2333984
-0.0038634641290384276,-5.582710997757679,2.2412109
-0.003929191496162308,-5.649916769532249,2.2490234
-0.0039955376734129855,-5.719012691426117,2.2568359
-0.004062499479517841,-5.789972316860822,2.2646484
-0.004130073474235842,-5.862764172822057,2.2724609
-0.004198255944817994,-5.937358927498872,2.2802734
-0.004267042953899204,-6.013732157613911,2.2880859
-0.004336430399724641,-6.091863156338118,2.2958984
-0.004406414040139822,-6.171733311719613,2.3037109
-0.004476989469213886,-6.253324763240227,2.3115234
-0.004548152085527457,-6.336619449800963,2.3193359
-0.004619897101455911,-6.421598837049737,2.3271484
-0.0046922195808110825,-6.508243615546542,2.3349609
-0.004765114441523789,-6.596533771020711,2.3427734
-0.004838576381101939,-6.686447861237573,2.3505859
-0.004912599754304907,-6.777961274456434,2.3583984
-0.00498717848555045,-6.871047071237277,2.3662109
-0.00506230610402443,-6.965678531640103,2.3740234
-0.005137975934217757,-7.061829312253155,2.3818359
-0.00521418132274619,-7.159472201089539,2.3896484
-0.005290915734657165,-7.2585783205411225,2.3974609
-0.005368172719841192,-7.359116169604439,2.4052734
-0.005445945843168405,-7.461051953064081,2.4130859
-0.005524228608397583,-7.564351173878747,2.4208984
-0.005603014381941699,-7.668979908222364,2.4287109
-0.005682296355864971,-7.774907674902901,2.4365234
-0.005762067565860232,-7.88211148518831,2.4443359
-0.005842320917221385,-7.990578536536961,2.4521484
-0.005923049190808977,-8.100307816888002,2.4599609
-0.00600424506186756,-8.21130953747582,2.4677734
-0.006085901159942164,-8.323601634741008,2.4755859
-0.006168010151064245,-8.437206159919283,2.4833984
-0.006250564787450006,-8.552146643599123,2.4912109
-0.006333557896864445,-8.668445870590723,2.4990234
-0.006416982353534602,-8.786124138327747,2.5068359
-0.006500831066320009,-8.905197030131333,2.5146484
-0.006585096955016273,-9.0256729139703,2.5224609
-0.006669772892783699,-9.14755153629598,2.5302734
-0.006754851649790975,-9.270822800426608,2.5380859
-0.006840325866786791,-9.395465489333908,2.5458984
-0.006926188043823505,-9.52144952943759,2.5537109
-0.00701243053307051,-9.648742132616178,2.5615234
-0.007099045547011289,-9.77731220219308,2.5693359
-0.007186025189568757,-9.907131023853735,2.5771484
-0.007273361499969694,-10.038171453112444,2.5849609
-0.007361046486484292,-10.170406028083853,2.5927734
-0.007449072126527066,-10.303805221155335,2.6005859
-0.0075374303201548335,-10.438336567471385,2.6083984
-0.0076261128285692896,-10.57396178054818,2.6162109
-0.007715111265804479,-10.710632096633404,2.6240234
-0.007804417152984933,-10.848285143795366,2.6318359
-0.007894021969085313,-10.986843856287468,2.6396484
-0.007983917160710834,-11.126216748674308,2.6474609
-0.008074094142236445,-11.266297277020605,2.6552734
-0.008164544322292421,-11.406961057605558,2.6630859
-0.00825525914337696,-11.548064352794073,2.6708984
-0.008346230086783708,-11.689444545649737,2.6787109
-0.008437448632086815,-11.830919481710056,2.6865234
-0.008528906218492394,-11.972285901727503,2.6943359
-0.008620594233575623,-12.113321969155477,2.7021484
-0.008712504006064787,-12.253799135124636,2.7099609
-0.008804626792291798,-12.393499691350105,2.7177734
-0.00889695377190426,-12.532228735241077,2.7255859
-0.008989476056000128,-12.669815907688017,2.7333984
-0.00908218469783266,-12.806112523861847,2.7412109
-0.0091750707081502,-12.940991366850122,2.7490234
-0.009268125083622538,-13.074350736436855,2.7568359
-0.00936133884586546,-13.206116906150001,2.7646484
-0.009454703083342961,-13.33623991579798,2.7724609
-0.009548208990558258,-13.464685490465738,2.7802734
-0.009641847896158203,-13.591428698913944,2.7880859
-0.009735611276844367,-13.716451889662762,2.7958984
-0.009829490777090649,-13.8397450955462,2.8037109
-0.009923478266961971,-13.961307446327858,2.8115234
-0.0100175659328779,-14.081150405323593,2.8193359
-0.010111746334667904,-14.199300963291135,2.8271484
-0.010206012371659164,-14.315805128696596,2.8349609
-0.010300357189925174,-14.430736430065842,2.8427734
-0.010394774117627048,-14.544205690799739,2.8505859
-0.010489256679644792,-14.65635942948408,2.8583984
-0.010583798669239532,-14.767364829115103,2.8662109
-0.010678394201458535,-14.877396108944492,2.8740234
-0.010773037696702605,-14.986630546923958,2.8818359
-0.010867723834835242,-15.095244272480143,2.8896484
-0.010962447526623271,-15.203403699497933,2.8974609
-0.011057203868401982,-15.311260680403395,2.9052734
-0.011151988060359662,-15.418952884567847,2.9130859
-0.011246795344092203,-15.52660557178944,2.9208984
-0.011341621019231501,-15.634332378663851,2.9287109
-0.011436460536443377,-15.74223349714836,2.9365234
-0.01153130958848964,-15.850393255145894,2.9443359
-0.01162616412092822,-15.958878000417288,2.9521484
-0.01172102027938492,-16.06773128678912,2.9599609
-0.011815874358884768,-16.176967363641328,2.9677734
-0.011910722764455211,-16.286566517977032,2.9755859
-0.012005561975383357,-16.39647268891436,2.9833984
-0.012100388548028413,-16.50659737230531,2.9912109
-0.01219519915643024,-16.61683370507756,2.9990234
-0.01228999061161748,-16.727070761819057,3.0068359
