Displacement (mm),Force (N),Time (s)
0.0029842835512462265,-6.745279059197205,0.021972656
0.002987601350141309,-6.701999501836376,0.029785156
0.0029908189402116925,-6.657056340994922,0.037597656
0.0029939363014778206,-6.610511470705422,0.045410156
0.002996953316190549,-6.562408010523796,0.053222656
0.002999869812042543,-6.512766990616424,0.061035156
0.003002685646603623,-6.461591002388388,0.068847656
0.0030054007314313375,-6.408870226213096,0.076660156
0.0030080149516395907,-6.354586324048644,0.084472656
0.0030105280712495013,-6.298712054637803,0.092285156
0.003012939722300845,-6.241213972724944,0.10009766
0.0030152494708163215,-6.182066234713586,0.10791016
0.0030174568938936717,-6.121270694936751,0.11572266
0.003019561610763795,-6.058870174130779,0.12353516
0.003021563264029799,-5.994945902967486,0.13134766
0.0030234614841956405,-5.9296017118887105,0.13916016
0.003025255848703843,-5.862946647830012,0.14697266
0.003026945860610164,-5.7950865384567285,0.15478516
0.003028530979908627,-5.726124708892409,0.16259766
0.003030010655787944,-5.656164955900091,0.17041016
0.003031384294099578,-5.58531183566092,0.17822266
0.003032651200919115,-5.513670156248781,0.18603516
0.003033810577349499,-5.441348459938666,0.19384766
0.003034861572603816,-5.368463180266113,0.20166016
0.003035803349202191,-5.2951403674424276,0.20947266
0.003036635108287936,-5.221519594670063,0.21728516
0.003037356056415549,-5.147755938142323,0.22509766
0.0030379653455591834,-5.074014423925279,0.23291016
0.0030384620460656483,-5.0004646895259555,0.24072266
0.0030388451860030976,-4.927280553038714,0.24853516
0.003039113823524722,-4.854638228088793,0.25634766
0.0030392671023411495,-4.782709036847688,0.26416016
0.0030393042844729487,-4.711651210082149,0.27197266
0.0030392247656077396,-4.641606505097344,0.27978516
0.00303902805946594,-4.572700777573904,0.28759766
0.0030387137549022065,-4.5050442810045235,0.29541016
0.003038281480137011,-4.438729800290917,0.30322266
0.003037730892378212,-4.3738321006089,0.31103516
0.003037061682235615,-4.310413386296597,0.31884766
0.0030362735945741294,-4.248529259888515,0.32666016
0.0030353664653471283,-4.188226871255934,0.33447266
0.003034340233353645,-4.129541957356274,0.34228516
0.0030331948963344363,-4.072503865180252,0.35009766
0.003031930440022756,-4.017146205048109,0.35791016
0.003030546803672026,-3.9635167227826447,0.36572266
0.0030290439321833296,-3.911675788286703,0.37353516
0.0030274218568592933,-3.861679473712847,0.38134766
0.0030256806779804224,-3.813561984822391,0.38916016
0.0030238204510277737,-3.767330295360469,0.39697266
0.0030218410973979174,-3.7229675135821347,0.40478516
0.0030197424270902236,-3.68043665354804,0.41259766
0.0030175242618957327,-3.6396811642133375,0.42041016
0.0030151865642398788,-3.6006255976888224,0.42822266
0.0030127294922993224,-3.5631836758134345,0.43603516
0.0030101533724558884,-3.5272748676767014,0.44384766
0.0030074586340101475,-3.49284212879282,0.45166016
0.0030046457743761546,-3.459865009661792,0.45947266
0.003001715377957553,-3.428366417823334,0.46728516
0.0029986681466424507,-3.398410849524488,0.47509766
0.0029955048834502396,-3.370095732085557,0.48291016
0.00299222641540435,-3.343544726115862,0.49072266
0.002988833502648362,-3.318909182358471,0.49853516
0.002985326782548221,-3.2963718308366694,0.50634766
0.002981706770687428,-3.27614461941176,0.51416016
0.0029779739271893987,-3.2584639669346838,0.52197266
0.0029741287658521195,-3.2435876642123036,0.52978516
0.00297017193293901,-3.231787672526167,0.53759766
0.0029661041758593377,-3.2233316935193943,0.54541016
0.0029619262238742613,-3.2184566518767035,0.55322266
0.002957638692934341,-3.2173480693895793,0.56103516
0.0029532420810841663,-3.2201331446602244,0.56884766
0.0029487368434475848,-3.2268831771434083,0.57666016
0.002944123489594241,-3.237622267948336,0.58447266
0.0029394026359428086,-3.2523417246256447,0.59228516
0.002934574991671853,-3.2710154325351515,0.60009766
0.0029296412969048212,-3.2936093738452663,0.60791016
0.0029246022446370533,-3.3200861686946115,0.61572266
0.0029194584251725484,-3.3504117429175677,0.62353516
0.002914210323321645,-3.3845586578882,0.63134766
0.002908858353749052,-3.422494760692005,0.63916016
0.0029034028755343874,-3.4641665515720974,0.64697266
0.0028978441661436437,-3.5094912997567302,0.65478516
0.0028921824053954877,-3.5583526296186103,0.66259766
0.002886417723077637,-3.610594314072109,0.67041016
0.002880550308785269,-3.6660166094398927,0.67822266
0.002874580517349254,-3.7243789953002557,0.68603516
0.0028685088973519654,-3.785410251728129,0.69384766
0.0028623361287813,-3.848818546786349,0.70166016
0.0028560629277767,-3.9142957679815034,0.70947266
0.002849690006845047,-3.981523738300022,0.71728516
0.00284321810429733,-4.0501893522100545,0.72509766
0.0028366480113603443,-4.120003229503061,0.73291016
0.002829980545415791,-4.190707984632119,0.74072266
0.0028232164851439115,-4.2620686210346115,0.74853516
0.0028163565270109205,-4.333853731355832,0.75634766
0.002809401297392686,-4.405819770105948,0.76416016
0.0028023513849351296,-4.477701868048562,0.77197266
0.002795207353088621,-4.549210568016167,0.77978516
0.0027879697425438675,-4.62003781815468,0.78759766
0.002780639068187132,-4.689874088761409,0.79541016
0.0027732157800608123,-4.758426841515784,0.80322266
0.002765700211838478,-4.825429676678628,0.81103516
0.0027580926097505354,-4.890643026410424,0.81884766
0.0027503932744798584,-4.953851060759345,0.82666016
0.002742602728308601,-5.014859591738943,0.83447266
0.0027347217680488392,-5.073500515902682,0.84228516
0.0027267513634530115,-5.129637367182461,0.85009766
0.002718692525461787,-5.183159013308141,0.85791016
0.0027105462595690437,-5.233965065833995,0.86572266
0.002702313591853856,-5.2819554082088045,0.87353516
0.0026939956207182227,-5.327027241267704,0.88134766
0.0026855935722212634,-5.369082862239956,0.88916016
0.0026771088021384716,-5.408043249136236,0.89697266
0.002668542679568059,-5.443852250928047,0.90478516
0.0026598964473009247,-5.476472359052976,0.91259766
0.002651171221894062,-5.505886280021814,0.92041016
0.0026423680942535294,-5.532106665785945,0.92822266
0.0026334881712551,-5.555183344932114,0.93603516
0.002624532500914263,-5.575200445424492,0.94384766
0.002615501983106121,-5.59226672045829,0.95166016
0.0026063973904611225,-5.606507290869529,0.95947266
0.0025972194462946367,-5.618061733209978,0.96728516
0.0025879688408518703,-5.627083993064849,0.97509766
0.0025786461927486456,-5.633736675418674,0.98291016
0.00256925199862079,-5.638185631272128,0.99072266
0.002559786564370823,-5.640604803365438,0.99853516
0.002550249942363098,-5.641188110749158,1.0063477
0.0025406419426831847,-5.640161342791506,1.0141602
0.002530962194665163,-5.637792769356201,1.0219727
0.002521210163766037,-5.634401068313518,1.0297852
0.002511385135301287,-5.630357213744548,1.0375977
0.0025014862445048003,-5.626079836823723,1.0454102
0.0024915125672946383,-5.6220289961218475,1.0532227
0.00248146322794486,-5.618704968455627,1.0610352
0.0024713374727574973,-5.616647831384479,1.0688477
0.0024611346928006474,-5.6164238826953055,1.0766602
0.0024508544111590865,-5.618597275328806,1.0844727
0.0024404962493593156,-5.62370005917707,1.0922852
0.0024300598872735316,-5.632208223078149,1.1000977
0.0024195450479305852,-5.6445218877055945,1.1079102
0.002408951532142753,-5.660950044454219,1.1157227
0.002398279260124311,-5.681702280688004,1.1235352
0.0023875282435661185,-5.706885501068758,1.1313477
0.002376698485511783,-5.7365028845945725,1.1391602
0.0023657898890353563,-5.770458641487029,1.1469727
0.0023548022592819917,-5.8085725474451815,1.1547852
0.00234373538570009,-5.850595404608794,1.1625977
0.0023325891011503523,-5.8962133907808445,1.1704102
0.0023213632501827394,-5.945045194858441,1.1782227
0.002310057577286846,-5.996643989829428,1.1860352
0.00229867160454819,-6.050509428593011,1.1938477
0.0022872045848917385,-6.1061082680836245,1.2016602
0.0022756555682355837,-6.1628963953157605,1.2094727
0.0022640235536662205,-6.220331849082963,1.2172852
0.0022523076288190067,-6.277880853193401,1.2250977
0.0022405069883552576,-6.335029979841811,1.2329102
0.00222862083915534,-6.391305649899189,1.2407227
0.0022166483052897144,-6.4462867944495,1.2485352
0.002204588426654833,-6.49959773670304,1.2563477
0.0021924402343843916,-6.550883875803939,1.2641602
0.0021802028114774365,-6.599783809804633,1.2719727
0.00216787527615787,-6.645908068269349,1.2797852
0.0021554567018823487,-6.688829156310887,1.2875977
0.0021429460576101013,-6.728084657365141,1.2954102
0.00213034223126783,-6.763193956332958,1.3032227
0.00211764409825719,-6.793684467122449,1.3110352
0.00210485055686296,-6.819115332770098,1.3188477
0.002091960492359838,-6.839091027690719,1.3266602
0.0020789726940623433,-6.853267709113238,1.3344727
0.002065885791615688,-6.861358336726718,1.3422852
0.002052698270399088,-6.863138826238002,1.3500977
0.002039408567110285,-6.858450024342594,1.3579102
0.002026015164858607,-6.847193420195985,1.3657227
0.0020125166194769404,-6.829325350729508,1.3735352
0.0019989115382482645,-6.804850336375607,1.3813477
0.0019851985482360617,-6.773811634941649,1.3891602
0.0019713762681452624,-6.736278380727919,1.3969727
0.0019574433069710685,-6.692332707721572,1.4047852
0.0019433982940560604,-6.642065293484254,1.4125977
0.0019292398958858856,-6.585579554078275,1.4204102
0.0019149667946225823,-6.522994580936406,1.4282227
0.0019005776750200033,-6.454444315091831,1.4360352
0.001886071250465639,-6.380079438157427,1.4438477
0.0018714462913366628,-6.300070316376849,1.4516602
0.0018567016250241129,-6.2146034037066835,1.4594727
0.0018418361078626514,-6.123872855487074,1.4672852
0.0018268485690027254,-6.028074195649912,1.4750977
0.0018117377493323612,-5.927400209099117,1.4829102
0.0017965023052999088,-5.822037274174294,1.4907227
0.0017811409053343672,-5.712170003042817,1.4985352
0.0017656523255384728,-5.59799875180178,1.5063477
0.0017500354524687045,-5.4797572429960955,1.5141602
0.0017342892187823854,-5.357721599540555,1.5219727
0.0017184125327290992,-5.23221881481519,1.5297852
0.0017024042315192075,-5.103639964956014,1.5375977
0.001686263078545882,-4.972450822621919,1.5454102
0.0016699877837019481,-4.839190991392163,1.5532227
0.0016535769992584944,-4.704462164097019,1.5610352
0.0016370293127892799,-4.568915088181357,1.5688477
0.001620343289674315,-4.433239291014264,1.5766602
0.0016035175269038789,-4.298147173540805,1.5844727
0.0015865506511287832,-4.1643482456940335,1.5922852
0.001569441295019271,-4.032520642595699,1.6000977
0.0015521881083176627,-3.903286165110791,1.6079102
0.0015347897605613597,-3.777193549550974,1.6157227
0.0015172448870293801,-3.6547167421317805,1.6235352
0.0014995520392458554,-3.5362674094476088,1.6313477
0.0014817097112749277,-3.4222099048202135,1.6391602
0.001463716399190299,-3.3128685411406047,1.6469727
0.001445570601372074,-3.2085294793674786,1.6547852
0.0014272707496077468,-3.109444829489511,1.6625977
0.001408815162760094,-3.015838283814608,1.6704102
0.0013902020917611457,-2.9279056976456075,1.6782227
0.0013714298027903097,-2.8458097860261495,1.6860352
0.0013524966143423876,-2.7696758137344033,1.6938477
0.0013334008858979477,-2.6995941656794216,1.7016602
0.0013141410057636218,-2.6356265123947202,1.7094727
0.0012947154045987411,-2.57780848660944,1.7172852
0.0012751225784604634,-2.526150815643154,1.7250977
0.0012553611012952562,-2.4806446433774783,1.7329102
0.0012354296464145071,-2.4412685572962443,1.7407227
0.0012153270180027872,-2.4079931514719766,1.7485352
0.0011950521376907477,-2.38078407710968,1.7563477
0.0011746039798106206,-2.3596054084158893,1.7641602
0.0011539815219677688,-2.344422540660036,1.7719727
0.0011331837419424964,-2.3352035622377585,1.7797852
0.001112209643203586,-2.3319205413873627,1.7875977
0.0010910583008866919,-2.334550144161945,1.7954102
0.0010697289310223458,-2.3430716516355665,1.8032227
0.001048220964621592,-2.357464340039031,1.8110352
0.0010265340879716126,-2.3777055066002246,1.8188477
0.001004668218776514,-2.4037709078085485,1.8266602
0.000982623417943735,-2.435642104770785,1.8344727
0.0009603998018162749,-2.4733173859733575,1.8422852
0.0009379975283621431,-2.516818530213606,1.8500977
0.0009154168284043168,-2.566192348433232,1.8579102
0.0008926580075772979,-2.6215080194387075,1.8657227
0.000869721400896137,-2.682850539338654,1.8735352
0.0008466073148625759,-2.750313156881395,1.8813477
0.00082331600534934,-2.823991760900029,1.8891602
0.0007998477066399058,-2.90398017034092,1.8969727
0.0007762026765493382,-2.9903664488954074,1.9047852
0.0007523811944980895,-3.0832345303507016,1.9125977
0.0007283834917734428,-3.182669882757608,1.9204102
0.0007042096736823841,-3.2887626388797266,1.9282227
0.0006798596815941525,-3.4016066422042837,1.9360352
0.0006553332728671425,-3.521297325253397,1.9438477
0.0006306299977562943,-3.647928916911443,1.9516602
0.0006057492065945356,-3.781589647855977,1.9594727
0.0005806901260081123,-3.922356432162695,1.9672852
0.0005554519788751239,-4.0702919243018005,1.9750977
0.0005300340789658113,-4.225448921882659,1.9829102
0.0005044358558464322,-4.3878860144976715,1.9907227
0.00047865684160221613,-4.557684384741218,1.9985352
0.0004526966980263595,-4.734952743871898,2.0063477
0.00042655526781357764,-4.919823458381223,2.0141602
0.0004002325507318921,-5.112445842470409,2.0219727
0.0003737286022008016,-5.312977858045544,2.0297852
0.000347043443049174,-5.521582281841767,2.0375977
0.0003201770441097996,-5.73842780194265,2.0454102
0.00029312938453146813,-5.9636860857628875,2.0532227
0.00026590052447038234,-6.197523669549731,2.0610352
0.00023849063855200714,-6.4400919656421145,2.0688477
0.00021090001551998008,-6.691517561279476,2.0766602
0.00018312904558266349,-6.951898695997149,2.0844727
0.00015517819467935655,-7.221308677195219,2.0922852
0.0001270479884311912,-7.499801701855622,2.1000977
9.873904384057384e-05,-7.787416587976238,2.1079102
7.025211532831433e-05,-8.084172571140252,2.1157227
4.1588085999537944e-05,-8.390056635734421,2.1235352
1.2747900356630904e-05,-8.705010953194959,2.1313477
-1.6267509754502476e-05,-9.028933422973171,2.1391602
-4.5457253983375545e-05,-9.361700085599303,2.1469727
-7.482045869989681e-05,-9.703205663040022,2.1547852
-0.00010435623506913086,-10.053401007124119,2.1625977
-0.00013406368166241916,-10.41230189446229,2.1704102
-0.00016394191257487138,-10.779972276618416,2.1782227
-0.00019399008164470841,-11.156501217188374,2.1860352
-0.00022420738932779445,-11.541975611039168,2.1938477
-0.0002545930729450138,-11.936453370048953,2.2016602
-0.00028514638944277605,-12.339949314804517,2.2094727
-0.0003158666070500321,-12.752431167527977,2.2172852
-0.0003467530156653764,-13.173818205670402,2.2250977
-0.0003778049534831838,-13.60398092232113,2.2329102
-0.00040902184459900046,-14.04274193887266,2.2407227
-0.00044040324069180597,-14.489879912219246,2.2485352
-0.00047194883449746085,-14.945133255955067,2.2563477
-0.000503658395694646,-15.408196601406441,2.2641602
-0.0005355316597857765,-15.878711577797908,2.2719727
-0.0005675682812267419,-16.356261113850778,2.2797852
-0.0005997679028930674,-16.84037552264235,2.2875977
-0.0006321302838268268,-17.330548285365992,2.2954102
-0.0006646553641640377,-17.826242333211454,2.3032227
-0.0006973432168090879,-18.32687143194134,2.3110352
-0.0007301939858018653,-18.831769423095537,2.3188477
-0.0007632078888480298,-19.34017212911093,2.3266602
-0.0007963852460041049,-19.851220399770575,2.3344727
-0.0008297265089276351,-20.363979107920557,2.3422852
-0.0008632322988148884,-20.877473403838383,2.3500977
-0.0008969034279782079,-21.39074251643966,2.3579102
-0.0009307408808936513,-21.902887311762296,2.3657227
-0.0009647457697279805,-22.413087694583872,2.3735352
-0.000998919291362112,-22.920598362931432,2.3813477
-0.001033262718227027,-23.424736278543268,2.3891602
-0.0010677774529580855,-23.924860627464525,2.3969727
-0.0011024651225968424,-24.420359868972852,2.4047852
-0.0011373276350510801,-24.910660049412357,2.4125977
-0.001172367158181031,-25.395235398162306,2.4204102
-0.0012075860666208513,-25.873598799927176,2.4282227
-0.0012429869127542354,-26.34528689560693,2.4360352
-0.001278572405118249,-26.809868971119872,2.4438477
-0.001314345354551855,-27.266974589673666,2.4516602
-0.0013503086279315077,-27.716306898272542,2.4594727
-0.001386465171138498,-28.157633244386588,2.4672852
-0.0014228180708158874,-28.59077626754997,2.4750977
-0.0014593705955597623,-29.015618292223504,2.4829102
-0.0014961262154450379,-29.432107963078415,2.4907227
-0.00153308858972049,-29.84025547399411,2.4985352
-0.0015702614838353113,-30.24011343710063,2.5063477
-0.0016076486455895937,-30.63175324069122,2.5141602
-0.0016452537232806584,-31.0152597717948,2.5219727
-0.001683080264129543,-31.390751519723473,2.5297852
-0.0017211317796989574,-31.758398395465854,2.5375977
-0.0017594118373566992,-32.11841863333077,2.5454102
-0.0017979241247437934,-32.47106778698576,2.5532227
-0.0018366724514215155,-32.816631770210876,2.5610352
-0.0018756606936315592,-33.155427546069106,2.5688477
-0.0019148927347194726,-33.48781129956569,2.5766602
-0.001954372447372642,-33.81418034759428,2.5844727
-0.001994103711930344,-34.13496079764283,2.5922852
-0.0020340904430323544,-34.450595154826246,2.6000977
-0.0020743366073370842,-34.761547646909385,2.6079102
-0.002114846222843142,-35.068326174346204,2.6157227
-0.0021556233320444325,-35.371496902452044,2.6235352
-0.002196671957128865,-35.671679656475035,2.6313477
-0.0022379960629562456,-35.96954149069474,2.6391602
-0.0022795995322014975,-36.26579059374818,2.6469727
-0.002321486140020604,-36.56115494115819,2.6547852
-0.0023636595565407334,-36.85635196543027,2.6625977
-0.0024061234088491564,-37.15206312077807,2.6704102
-0.0024488813242868014,-37.44891264312598,2.6782227
-0.0024919368594777075,-37.74745113111748,2.6860352
-0.002535293413882927,-38.0481517394197,2.6938477
-0.0025789542682410718,-38.35141552432701,2.7016602
-0.002622922677716042,-38.65757085784061,2.7094727
-0.002667201893323358,-38.96686244365873,2.7172852
-0.0027117950959971143,-39.27944109823127,2.7250977
-0.0027567052812090646,-39.59535917049728,2.7329102
-0.002801935146988171,-39.91455924590335,2.7407227
-0.002847487044826142,-40.236857983027384,2.7485352
-0.0028933630166148787,-40.56194685194631,2.7563477
-0.0029395648478606883,-40.889416500309004,2.7641602
-0.002986094044106322,-41.21880515822723,2.7719727
-0.003032951746469137,-41.5496647277548,2.7797852
-0.0030801386876392056,-41.88160770833508,2.7875977
-0.0031276552675017504,-42.21431328351331,2.7954102
-0.0031755017174987066,-42.547518518821825,2.8032227
-0.0032236782318954466,-42.88101460455588,2.8110352
-0.0032721849645751568,-43.21464424871952,2.8188477
-0.0033210218729830166,-43.54830667349054,2.8266602
-0.0033701885143011695,-43.88197167574522,2.8344727
-0.0034196839424253194,-44.21568215494301,2.8422852
-0.003469506736727463,-44.549535274808214,2.8500977
-0.0035196550905733427,-44.88365907100835,2.8579102
-0.0035701268757460524,-45.21819853438347,2.8657227
-0.0036209196485699584,-45.553306765730014,2.8735352
-0.003672030640110288,-45.88914211470993,2.8813477
-0.003723456793997158,-46.22587232964941,2.8891602
-0.003775194870630277,-46.56367459711422,2.8969727
-0.003827241555810893,-46.90273173931872,2.9047852
-0.0038795934775656036,-47.2432300863285,2.9125977
-0.003932247122534609,-47.58535227819337,2.9204102
-0.003985198765945266,-47.92926029763874,2.9282227
-0.004038444528384362,-48.27507654880977,2.9360352
-0.004091980514271042,-48.622875115630215,2.9438477
-0.004145802892005527,-48.972688834120795,2.9516602
-0.004199907874026379,-49.324524400677745,2.9594727
-0.004254291649888181,-49.67836960598571,2.9672852
-0.0043089503279408765,-50.034192779709265,2.9750977
-0.004363879917210941,-50.391947595697125,2.9829102
-0.00441907634058032,-50.75158182551428,2.9907227
-0.004474535439291688,-51.11304413994853,2.9985352
-0.004530252931862561,-51.47629282496264,3.0063477
-0.004586224325863797,-51.84130909504323,3.0141602
-0.004642444831938982,-52.20811159777032,3.0219727
-0.004698909364024601,-52.576764159792816,3.0297852
-0.0047556126552210625,-52.947379258645476,3.0375977
